# OpenSignals Text File Format. Version 1
# {"98:D3:61:FD:78:31": {"position": 0, "device": "bitalino_rev", "device name": "98:D3:61:FD:78:31", "device connection": "BTH98:D3:61:FD:78:31", "sampling rate": 1000, "resolution": [4, 1, 1, 1, 1, 10, 10, 10, 10, 6, 6], "firmware version": 1282, "comments": "", "keywords": "", "mode": 0, "sync interval": 2, "date": "2024-4-12", "time": "10:37:10.846", "channels": [1, 2, 3, 4, 5, 6], "sensor": ["RAW", "RAW", "RAW", "RAW", "RAW", "RAW"], "label": ["A1", "A2", "A3", "A4", "A5", "A6"], "column": ["nSeq", "I1", "I2", "O1", "O2", "A1", "A2", "A3", "A4", "A5", "A6"], "special": [{}, {}, {}, {}, {}, {}], "digital IO": [0, 0, 1, 1], "convertedValues": 0}}
# EndOfHeader
0	0	0	0	0	486	510	0	1018	38	1	
1	0	0	0	0	507	512	0	1018	38	0	
2	0	0	0	0	507	511	0	1018	38	0	
3	0	0	0	0	509	510	0	1018	38	0	
4	0	0	0	0	525	511	0	1018	38	0	
5	0	0	0	0	518	509	0	1018	38	0	
6	0	0	0	0	513	508	0	1018	38	1	
7	0	0	0	0	522	508	0	1018	38	1	
8	0	0	0	0	539	508	0	1018	38	1	
9	0	0	0	0	531	507	0	1018	38	1	
10	0	0	0	0	523	507	0	1018	39	0	
11	0	0	0	0	515	507	0	1018	38	0	
12	0	0	0	0	505	508	0	1018	38	0	
13	0	0	0	0	503	507	0	1018	38	0	
14	0	0	0	0	505	506	0	1018	38	1	
15	0	0	0	0	511	508	0	1018	38	1	
0	0	0	0	0	497	508	0	1018	38	1	
1	0	0	0	0	473	509	0	1018	38	1	
2	0	0	0	0	444	508	0	1018	39	0	
3	0	0	0	0	480	508	0	1018	38	0	
4	0	0	0	0	514	508	0	1017	38	0	
5	0	0	0	0	488	507	0	1018	38	0	
6	0	0	0	0	507	507	0	1018	38	1	
7	0	0	0	0	531	507	0	1018	38	1	
8	0	0	0	0	533	507	0	1018	38	1	
9	0	0	0	0	524	505	0	1018	38	1	
10	0	0	0	0	511	506	0	1018	38	0	
11	0	0	0	0	524	507	0	1018	38	0	
12	0	0	0	0	534	507	0	1018	38	0	
13	0	0	0	0	546	507	0	1018	38	0	
14	0	0	0	0	530	507	0	1018	38	0	
15	0	0	0	0	505	506	0	1018	38	1	
0	0	0	0	0	510	508	0	1018	38	1	
1	0	0	0	0	510	508	0	1018	38	1	
2	0	0	0	0	487	507	0	1018	39	1	
3	0	0	0	0	466	507	0	1018	38	0	
4	0	0	0	0	483	508	0	1017	38	0	
5	0	0	0	0	515	507	0	1018	38	0	
6	0	0	0	0	492	508	0	1018	38	0	
7	0	0	0	0	502	508	0	1018	38	1	
8	0	0	0	0	487	509	0	1018	38	1	
9	0	0	0	0	507	510	0	1018	38	1	
10	0	0	0	0	529	508	0	1018	39	1	
11	0	0	0	0	521	505	0	1018	38	0	
12	0	0	0	0	519	505	0	1018	38	0	
13	0	0	0	0	508	504	0	1018	38	0	
14	0	0	0	0	514	505	0	1018	38	0	
15	0	0	0	0	498	508	0	1018	38	1	
0	0	0	0	0	484	508	0	1018	38	1	
1	0	0	0	0	510	506	0	1018	38	1	
2	0	0	0	0	529	504	0	1018	38	1	
3	0	0	0	0	537	506	0	1018	38	0	
4	0	0	0	0	535	506	0	1018	38	0	
5	0	0	0	0	523	507	0	1018	38	0	
6	0	0	0	0	514	509	0	1018	38	0	
7	0	0	0	0	496	509	0	1018	38	0	
8	0	0	0	0	497	509	0	1018	38	1	
9	0	0	0	0	511	509	0	1018	38	1	
10	0	0	0	0	519	509	0	1018	38	1	
11	0	0	0	0	514	508	0	1018	38	1	
12	0	0	0	0	511	508	0	1018	38	0	
13	0	0	0	0	527	508	0	1018	38	0	
14	0	0	0	0	547	507	0	1018	38	0	
15	0	0	0	0	542	507	0	1018	38	0	
0	0	0	0	0	521	507	0	1018	38	1	
1	0	0	0	0	459	506	0	1018	38	1	
2	0	0	0	0	428	508	0	1018	38	1	
3	0	0	0	0	425	508	0	1018	38	1	
4	0	0	0	0	455	509	0	1018	38	0	
5	0	0	0	0	531	511	0	1018	38	0	
6	0	0	0	0	539	511	0	1018	38	0	
7	0	0	0	0	526	509	0	1018	38	0	
8	0	0	0	0	520	510	0	1018	38	1	
9	0	0	0	0	519	509	0	1018	38	1	
10	0	0	0	0	523	508	0	1018	38	1	
11	0	0	0	0	530	508	0	1018	38	1	
12	0	0	0	0	547	508	0	1018	38	1	
13	0	0	0	0	550	509	0	1018	38	0	
14	0	0	0	0	544	510	0	1018	38	0	
15	0	0	0	0	531	508	0	1018	38	0	
0	0	0	0	0	522	508	0	1018	38	0	
1	0	0	0	0	456	508	0	1018	38	1	
2	0	0	0	0	470	508	0	1018	38	1	
3	0	0	0	0	493	505	0	1018	38	1	
4	0	0	0	0	455	505	0	1018	38	1	
5	0	0	0	0	472	505	0	1018	38	0	
6	0	0	0	0	481	506	0	1018	38	0	
7	0	0	0	0	528	507	0	1018	38	0	
8	0	0	0	0	528	504	0	1018	38	0	
9	0	0	0	0	534	504	0	1018	38	1	
10	0	0	0	0	541	503	0	1018	39	1	
11	0	0	0	0	527	503	0	1018	38	1	
12	0	0	0	0	526	504	0	1018	38	1	
13	0	0	0	0	515	504	0	1018	38	0	
14	0	0	0	0	488	504	0	1018	38	0	
15	0	0	0	0	520	504	0	1018	38	0	
0	0	0	0	0	514	505	0	1018	38	0	
1	0	0	0	0	490	506	0	1018	38	1	
2	0	0	0	0	492	508	0	1018	39	1	
3	0	0	0	0	493	507	0	1018	38	1	
4	0	0	0	0	483	506	0	1018	38	1	
5	0	0	0	0	482	508	0	1018	38	1	
6	0	0	0	0	503	508	0	1018	38	0	
7	0	0	0	0	500	508	0	1018	38	0	
8	0	0	0	0	499	509	0	1018	38	0	
9	0	0	0	0	514	508	0	1018	38	0	
10	0	0	0	0	523	504	0	1018	39	1	
11	0	0	0	0	537	506	0	1018	38	1	
12	0	0	0	0	525	506	0	1018	38	1	
13	0	0	0	0	524	508	0	715	38	1	
14	0	0	0	0	518	508	0	345	38	0	
15	0	0	0	0	514	507	0	0	38	0	
0	0	0	0	0	520	508	0	0	38	0	
1	0	0	0	0	532	509	0	0	38	0	
2	0	0	0	0	534	509	0	0	38	1	
3	0	0	0	0	535	508	0	0	38	1	
4	0	0	0	0	520	508	0	0	38	1	
5	0	0	0	0	489	507	0	0	38	1	
6	0	0	0	0	494	507	0	0	38	0	
7	0	0	0	0	490	508	0	0	38	0	
8	0	0	0	0	497	508	0	0	38	0	
9	0	0	0	0	480	509	0	0	38	0	
10	0	0	0	0	465	508	0	0	39	1	
11	0	0	0	0	484	509	0	0	38	1	
12	0	0	0	0	518	510	0	0	38	1	
13	0	0	0	0	531	508	0	0	38	1	
14	0	0	0	0	519	507	0	0	38	1	
15	0	0	0	0	524	507	0	0	38	0	
0	0	0	0	0	511	508	0	0	38	0	
1	0	0	0	0	513	508	0	0	38	0	
2	0	0	0	0	502	507	0	0	39	1	
3	0	0	0	0	510	507	0	0	38	1	
4	0	0	0	0	514	510	0	0	38	1	
5	0	0	0	0	512	508	0	0	38	1	
6	0	0	0	0	541	508	0	0	38	1	
7	0	0	0	0	563	508	0	0	38	0	
8	0	0	0	0	537	506	0	0	38	0	
9	0	0	0	0	483	505	0	0	38	0	
10	0	0	0	0	419	507	0	0	38	1	
11	0	0	0	0	407	507	0	0	38	1	
12	0	0	0	0	422	507	0	0	38	1	
13	0	0	0	0	524	506	0	0	38	1	
14	0	0	0	0	537	506	0	0	38	1	
15	0	0	0	0	535	506	0	0	38	1	
0	0	0	0	0	543	507	0	0	38	0	
1	0	0	0	0	540	507	0	0	38	0	
2	0	0	0	0	534	508	0	0	38	0	
3	0	0	0	0	546	508	0	0	38	1	
4	0	0	0	0	552	508	0	0	38	1	
5	0	0	0	0	545	508	0	0	38	1	
6	0	0	0	0	521	509	0	0	38	1	
7	0	0	0	0	494	509	0	0	38	1	
8	0	0	0	0	472	509	0	0	38	0	
9	0	0	0	0	436	511	0	0	38	0	
10	0	0	0	0	440	510	0	0	39	0	
11	0	0	0	0	503	510	0	0	38	1	
12	0	0	0	0	519	508	0	0	38	1	
13	0	0	0	0	522	509	0	0	38	1	
14	0	0	0	0	527	508	0	0	38	1	
15	0	0	0	0	530	507	0	0	38	1	
0	0	0	0	0	522	507	0	0	38	0	
1	0	0	0	0	505	507	0	0	38	0	
2	0	0	0	0	515	508	0	0	39	0	
3	0	0	0	0	536	508	0	0	38	1	
4	0	0	0	0	536	508	0	0	38	1	
5	0	0	0	0	519	508	0	200	38	1	
6	0	0	0	0	511	507	0	492	38	1	
7	0	0	0	0	492	509	0	688	38	1	
8	0	0	0	0	467	508	0	750	38	1	
9	0	0	0	0	464	508	0	662	38	0	
10	0	0	0	0	513	508	0	665	39	0	
11	0	0	0	0	530	506	0	660	38	0	
12	0	0	0	0	531	506	0	542	38	1	
13	0	0	0	0	524	508	0	414	38	1	
14	0	0	0	0	526	509	0	280	38	1	
15	0	0	0	0	544	509	0	64	38	1	
0	0	0	0	0	558	509	0	0	38	1	
1	0	0	0	0	542	509	0	0	38	0	
2	0	0	0	0	502	508	0	0	39	0	
3	0	0	0	0	483	508	0	0	38	0	
4	0	0	0	0	515	508	0	0	38	0	
5	0	0	0	0	482	508	0	0	38	1	
6	0	0	0	0	498	508	0	0	38	1	
7	0	0	0	0	474	507	0	132	38	1	
8	0	0	0	0	435	505	0	177	38	1	
9	0	0	0	0	430	507	0	165	38	0	
10	0	0	0	0	465	508	0	93	38	0	
11	0	0	0	0	538	508	0	13	38	0	
12	0	0	0	0	533	508	0	0	38	0	
13	0	0	0	0	504	507	0	0	38	1	
14	0	0	0	0	488	506	0	0	38	1	
15	0	0	0	0	507	506	0	0	38	1	
0	0	0	0	0	531	506	0	0	38	1	
1	0	0	0	0	550	507	0	0	38	0	
2	0	0	0	0	538	509	0	0	38	0	
3	0	0	0	0	527	507	0	0	38	0	
4	0	0	0	0	531	506	0	0	38	1	
5	0	0	0	0	529	505	0	0	38	1	
6	0	0	0	0	508	505	0	0	38	1	
7	0	0	0	0	506	505	0	0	38	1	
8	0	0	0	0	512	505	0	0	38	1	
9	0	0	0	0	507	508	0	0	38	1	
10	0	0	0	0	490	508	0	0	39	0	
11	0	0	0	0	496	508	0	0	38	0	
12	0	0	0	0	460	508	0	0	38	0	
13	0	0	0	0	487	509	0	0	38	0	
14	0	0	0	0	522	507	0	0	38	1	
15	0	0	0	0	530	507	0	0	38	1	
0	0	0	0	0	533	508	0	0	38	1	
1	0	0	0	0	537	509	0	0	38	1	
2	0	0	0	0	530	508	0	0	39	0	
3	0	0	0	0	510	506	0	0	38	0	
4	0	0	0	0	484	507	0	0	38	0	
5	0	0	0	0	497	508	0	0	38	0	
6	0	0	0	0	504	508	0	0	38	1	
7	0	0	0	0	500	508	0	0	38	1	
8	0	0	0	0	512	508	0	0	38	1	
9	0	0	0	0	512	506	0	0	38	1	
10	0	0	0	0	501	507	0	0	38	0	
11	0	0	0	0	496	507	0	0	38	0	
12	0	0	0	0	512	506	0	0	38	0	
13	0	0	0	0	518	507	0	0	38	0	
14	0	0	0	0	539	507	0	0	38	0	
15	0	0	0	0	534	507	0	0	38	1	
0	0	0	0	0	529	504	0	0	38	1	
1	0	0	0	0	516	504	0	0	38	1	
2	0	0	0	0	535	505	0	0	38	0	
3	0	0	0	0	516	505	0	0	38	0	
4	0	0	0	0	494	505	0	0	38	0	
5	0	0	0	0	511	506	0	0	38	0	
6	0	0	0	0	505	505	0	0	38	0	
7	0	0	0	0	492	506	0	0	38	1	
8	0	0	0	0	473	507	0	0	38	1	
9	0	0	0	0	467	507	0	0	38	1	
10	0	0	0	0	476	507	0	0	38	1	
11	0	0	0	0	520	507	0	0	38	0	
12	0	0	0	0	515	508	0	0	38	0	
13	0	0	0	0	495	508	0	0	38	0	
14	0	0	0	0	488	509	0	0	38	0	
15	0	0	0	0	486	508	0	0	38	1	
0	0	0	0	0	501	507	0	0	38	1	
1	0	0	0	0	508	508	0	0	38	1	
2	0	0	0	0	506	509	0	0	39	1	
3	0	0	0	0	515	509	0	0	38	0	
4	0	0	0	0	524	510	0	0	38	0	
5	0	0	0	0	514	509	0	0	38	0	
6	0	0	0	0	509	509	0	0	38	0	
7	0	0	0	0	529	510	0	0	38	0	
8	0	0	0	0	532	509	0	0	38	1	
9	0	0	0	0	528	508	0	0	38	1	
10	0	0	0	0	535	508	0	0	39	1	
11	0	0	0	0	518	508	0	0	38	0	
12	0	0	0	0	508	508	0	0	38	0	
13	0	0	0	0	507	511	0	0	38	0	
14	0	0	0	0	491	510	0	0	38	0	
15	0	0	0	0	489	508	0	0	38	0	
0	0	0	0	0	496	509	0	0	38	1	
1	0	0	0	0	512	508	0	0	38	1	
2	0	0	0	0	517	506	0	0	38	1	
3	0	0	0	0	509	505	0	0	38	1	
4	0	0	0	0	524	504	0	0	38	0	
5	0	0	0	0	535	507	0	0	38	0	
6	0	0	0	0	529	507	0	0	38	0	
7	0	0	0	0	504	508	0	0	38	0	
8	0	0	0	0	496	507	0	0	38	1	
9	0	0	0	0	501	505	0	0	38	1	
10	0	0	0	0	520	505	0	0	38	1	
11	0	0	0	0	512	503	0	0	38	1	
12	0	0	0	0	494	504	0	0	38	0	
13	0	0	0	0	484	505	0	0	38	0	
14	0	0	0	0	489	504	0	0	38	0	
15	0	0	0	0	476	504	0	0	38	0	
0	0	0	0	0	514	505	0	0	38	0	
1	0	0	0	0	530	507	0	0	38	1	
2	0	0	0	0	531	508	0	0	39	1	
3	0	0	0	0	513	508	0	0	38	1	
4	0	0	0	0	489	506	0	0	38	0	
5	0	0	0	0	479	506	0	0	38	0	
6	0	0	0	0	508	507	0	0	38	0	
7	0	0	0	0	516	507	0	0	38	0	
8	0	0	0	0	537	507	0	0	38	0	
9	0	0	0	0	543	508	0	0	38	1	
10	0	0	0	0	535	507	0	0	39	1	
11	0	0	0	0	506	508	0	0	38	1	
12	0	0	0	0	476	510	0	152	38	1	
13	0	0	0	0	481	512	0	247	38	0	
14	0	0	0	0	474	513	0	278	38	0	
15	0	0	0	0	478	511	0	146	38	0	
0	0	0	0	0	502	511	0	0	38	0	
1	0	0	0	0	530	512	0	0	38	1	
2	0	0	0	0	535	509	0	0	39	1	
3	0	0	0	0	527	510	0	0	38	1	
4	0	0	0	0	513	511	0	0	38	1	
5	0	0	0	0	505	510	0	0	38	0	
6	0	0	0	0	500	510	0	0	38	0	
7	0	0	0	0	501	509	0	0	38	0	
8	0	0	0	0	497	508	0	0	38	0	
9	0	0	0	0	493	508	0	0	38	0	
10	0	0	0	0	506	507	0	0	39	1	
11	0	0	0	0	510	507	0	0	38	1	
12	0	0	0	0	532	507	0	0	38	1	
13	0	0	0	0	530	506	0	0	38	1	
14	0	0	0	0	523	507	0	0	38	0	
15	0	0	0	0	515	507	0	0	38	0	
0	0	0	0	0	524	507	0	0	38	0	
1	0	0	0	0	528	508	0	0	38	0	
2	0	0	0	0	507	508	0	0	39	1	
3	0	0	0	0	504	508	0	0	38	1	
4	0	0	0	0	500	511	0	0	38	1	
5	0	0	0	0	531	511	0	0	38	1	
6	0	0	0	0	542	512	0	0	38	0	
7	0	0	0	0	513	511	0	402	38	0	
8	0	0	0	0	477	510	0	678	38	0	
9	0	0	0	0	470	509	0	911	38	0	
10	0	0	0	0	469	508	0	998	39	1	
11	0	0	0	0	459	508	0	1018	38	1	
12	0	0	0	0	500	507	0	1018	38	1	
13	0	0	0	0	524	509	0	1018	38	1	
14	0	0	0	0	514	510	0	1018	38	0	
15	0	0	0	0	528	511	0	1018	38	0	
0	0	0	0	0	542	508	0	1018	38	0	
1	0	0	0	0	544	508	0	1018	38	0	
2	0	0	0	0	560	508	0	1018	39	1	
3	0	0	0	0	553	507	0	1018	38	1	
4	0	0	0	0	529	507	0	1018	38	1	
5	0	0	0	0	496	506	0	1018	38	1	
6	0	0	0	0	476	507	0	1018	38	1	
7	0	0	0	0	443	505	0	1018	38	0	
8	0	0	0	0	435	507	0	1018	38	0	
9	0	0	0	0	449	508	0	1018	38	0	
10	0	0	0	0	472	508	0	1018	39	1	
11	0	0	0	0	524	507	0	1018	38	1	
12	0	0	0	0	524	508	0	1018	38	1	
13	0	0	0	0	528	510	0	1018	38	1	
14	0	0	0	0	541	510	0	1018	38	1	
15	0	0	0	0	531	508	0	1018	38	0	
0	0	0	0	0	521	510	0	1018	38	0	
1	0	0	0	0	529	509	0	1018	38	0	
2	0	0	0	0	524	509	0	1018	39	0	
3	0	0	0	0	523	509	0	1018	38	1	
4	0	0	0	0	499	507	0	1018	38	1	
5	0	0	0	0	495	505	0	1018	38	1	
6	0	0	0	0	501	505	0	1018	38	1	
7	0	0	0	0	522	506	0	1018	38	0	
8	0	0	0	0	513	507	0	1018	38	0	
9	0	0	0	0	500	505	0	1018	38	0	
10	0	0	0	0	518	506	0	1018	38	0	
11	0	0	0	0	519	506	0	1018	38	1	
12	0	0	0	0	513	506	0	1018	38	1	
13	0	0	0	0	530	509	0	1018	38	1	
14	0	0	0	0	515	508	0	1018	38	1	
15	0	0	0	0	508	508	0	1018	38	1	
0	0	0	0	0	475	510	0	1018	38	0	
1	0	0	0	0	483	510	0	1018	38	0	
2	0	0	0	0	528	508	0	1018	39	0	
3	0	0	0	0	547	508	0	1018	38	1	
4	0	0	0	0	537	509	0	1017	38	1	
5	0	0	0	0	534	510	0	1018	38	1	
6	0	0	0	0	500	510	0	1018	38	1	
7	0	0	0	0	479	510	0	1018	38	1	
8	0	0	0	0	446	509	0	1018	38	0	
9	0	0	0	0	469	511	0	1018	38	0	
10	0	0	0	0	503	510	0	1018	39	0	
11	0	0	0	0	499	508	0	1018	38	1	
12	0	0	0	0	516	508	0	1018	38	1	
13	0	0	0	0	520	507	0	1018	38	1	
14	0	0	0	0	534	507	0	1018	38	1	
15	0	0	0	0	510	508	0	1018	38	1	
0	0	0	0	0	519	508	0	1018	38	1	
1	0	0	0	0	524	508	0	1018	38	0	
2	0	0	0	0	515	506	0	1018	38	0	
3	0	0	0	0	536	507	0	1018	38	0	
4	0	0	0	0	551	507	0	1018	38	1	
5	0	0	0	0	526	507	0	1018	38	1	
6	0	0	0	0	507	508	0	1018	38	1	
7	0	0	0	0	477	507	0	1018	38	1	
8	0	0	0	0	417	505	0	1018	38	1	
9	0	0	0	0	471	504	0	1018	38	0	
10	0	0	0	0	519	505	0	1018	38	0	
11	0	0	0	0	559	506	0	1018	38	0	
12	0	0	0	0	567	505	0	1018	38	0	
13	0	0	0	0	548	504	0	1018	38	1	
14	0	0	0	0	527	505	0	1018	38	1	
15	0	0	0	0	466	505	0	1018	38	1	
0	0	0	0	0	454	504	0	1018	38	1	
1	0	0	0	0	464	504	0	1018	38	0	
2	0	0	0	0	476	504	0	1018	39	0	
3	0	0	0	0	506	504	0	1018	38	0	
4	0	0	0	0	508	503	0	1018	38	0	
5	0	0	0	0	529	505	0	670	38	1	
6	0	0	0	0	550	504	0	481	38	1	
7	0	0	0	0	543	504	0	435	38	1	
8	0	0	0	0	530	505	0	514	38	1	
9	0	0	0	0	506	506	0	656	38	1	
10	0	0	0	0	469	507	0	816	39	0	
11	0	0	0	0	467	506	0	811	38	0	
12	0	0	0	0	499	507	0	627	38	0	
13	0	0	0	0	519	506	0	377	38	1	
14	0	0	0	0	503	507	0	81	38	1	
15	0	0	0	0	523	508	0	0	38	1	
0	0	0	0	0	504	506	0	0	38	1	
1	0	0	0	0	503	505	0	0	38	1	
2	0	0	0	0	518	505	0	0	39	0	
3	0	0	0	0	519	504	0	0	38	0	
4	0	0	0	0	526	504	0	0	38	0	
5	0	0	0	0	529	505	0	0	38	0	
6	0	0	0	0	519	504	0	0	38	1	
7	0	0	0	0	512	506	0	0	38	1	
8	0	0	0	0	510	507	0	0	38	1	
9	0	0	0	0	510	508	0	0	38	1	
10	0	0	0	0	512	507	0	0	38	0	
11	0	0	0	0	516	508	0	0	38	0	
12	0	0	0	0	502	507	0	0	38	0	
13	0	0	0	0	476	507	0	0	38	0	
14	0	0	0	0	497	508	0	0	38	1	
15	0	0	0	0	487	508	0	0	38	1	
0	0	0	0	0	512	508	0	0	38	1	
1	0	0	0	0	520	506	0	0	38	1	
2	0	0	0	0	516	507	0	0	38	0	
3	0	0	0	0	513	508	0	0	38	0	
4	0	0	0	0	530	508	0	0	38	0	
5	0	0	0	0	557	510	0	0	38	0	
6	0	0	0	0	531	508	0	0	38	0	
7	0	0	0	0	520	508	0	0	38	1	
8	0	0	0	0	494	508	0	0	38	1	
9	0	0	0	0	497	506	0	0	38	1	
10	0	0	0	0	463	505	0	0	39	1	
11	0	0	0	0	483	505	0	0	38	0	
12	0	0	0	0	467	506	0	0	38	0	
13	0	0	0	0	469	507	0	0	38	0	
14	0	0	0	0	496	507	0	0	38	0	
15	0	0	0	0	505	507	0	0	38	1	
0	0	0	0	0	500	507	0	0	38	1	
1	0	0	0	0	529	507	0	0	38	1	
2	0	0	0	0	554	506	0	0	39	1	
3	0	0	0	0	563	508	0	0	38	0	
4	0	0	0	0	552	510	0	0	38	0	
5	0	0	0	0	528	509	0	0	38	0	
6	0	0	0	0	514	508	0	0	38	0	
7	0	0	0	0	488	507	0	0	38	1	
8	0	0	0	0	462	506	0	0	38	1	
9	0	0	0	0	458	507	0	0	38	1	
10	0	0	0	0	464	508	0	0	38	1	
11	0	0	0	0	501	508	0	0	38	0	
12	0	0	0	0	530	510	0	0	38	0	
13	0	0	0	0	546	510	0	0	38	0	
14	0	0	0	0	551	510	0	0	38	0	
15	0	0	0	0	548	509	0	0	38	0	
0	0	0	0	0	527	508	0	0	38	1	
1	0	0	0	0	507	508	0	0	38	1	
2	0	0	0	0	489	510	0	0	38	1	
3	0	0	0	0	468	509	0	0	38	1	
4	0	0	0	0	487	508	0	0	38	0	
5	0	0	0	0	492	510	0	0	38	0	
6	0	0	0	0	515	509	0	0	38	0	
7	0	0	0	0	514	509	0	479	38	0	
8	0	0	0	0	484	508	0	960	38	1	
9	0	0	0	0	512	508	0	1018	38	1	
10	0	0	0	0	527	508	0	1017	38	1	
11	0	0	0	0	500	508	0	1018	38	1	
12	0	0	0	0	492	508	0	1018	38	0	
13	0	0	0	0	525	507	0	1018	38	0	
14	0	0	0	0	557	507	0	1018	38	0	
15	0	0	0	0	556	508	0	1018	38	0	
0	0	0	0	0	549	509	0	1018	38	0	
1	0	0	0	0	520	508	0	1018	38	1	
2	0	0	0	0	488	508	0	1018	39	1	
3	0	0	0	0	477	509	0	1018	38	1	
4	0	0	0	0	455	509	0	1018	38	0	
5	0	0	0	0	486	510	0	1017	38	0	
6	0	0	0	0	510	509	0	1018	38	0	
7	0	0	0	0	481	508	0	1018	38	0	
8	0	0	0	0	500	508	0	1018	38	0	
9	0	0	0	0	539	508	0	1018	38	1	
10	0	0	0	0	538	508	0	1017	39	1	
11	0	0	0	0	516	506	0	1018	38	1	
12	0	0	0	0	493	506	0	1018	38	0	
13	0	0	0	0	480	507	0	919	38	0	
14	0	0	0	0	497	505	0	722	38	0	
15	0	0	0	0	544	507	0	688	38	0	
0	0	0	0	0	554	508	0	684	38	0	
1	0	0	0	0	515	508	0	716	38	1	
2	0	0	0	0	505	507	0	799	39	1	
3	0	0	0	0	498	509	0	847	38	1	
4	0	0	0	0	487	507	0	758	38	1	
5	0	0	0	0	485	505	0	679	38	0	
6	0	0	0	0	543	504	0	648	38	0	
7	0	0	0	0	556	505	0	701	38	0	
8	0	0	0	0	518	508	0	714	38	0	
9	0	0	0	0	489	508	0	803	38	0	
10	0	0	0	0	455	506	0	838	39	1	
11	0	0	0	0	448	507	0	712	38	1	
12	0	0	0	0	471	507	0	516	38	1	
13	0	0	0	0	499	505	0	372	38	0	
14	0	0	0	0	524	505	0	182	38	0	
15	0	0	0	0	526	506	0	54	38	0	
0	0	0	0	0	515	506	0	0	38	0	
1	0	0	0	0	505	507	0	0	38	0	
2	0	0	0	0	501	508	0	0	38	1	
3	0	0	0	0	529	508	0	0	38	1	
4	0	0	0	0	527	508	0	0	38	1	
5	0	0	0	0	534	510	0	0	38	1	
6	0	0	0	0	527	509	0	0	38	0	
7	0	0	0	0	538	509	0	0	38	0	
8	0	0	0	0	531	509	0	0	38	0	
9	0	0	0	0	510	511	0	0	38	0	
10	0	0	0	0	489	508	0	0	38	1	
11	0	0	0	0	475	508	0	0	38	1	
12	0	0	0	0	496	510	0	0	38	1	
13	0	0	0	0	492	510	0	0	38	1	
14	0	0	0	0	492	509	0	180	38	0	
15	0	0	0	0	519	510	0	573	38	0	
0	0	0	0	0	528	511	0	1017	38	0	
1	0	0	0	0	532	510	0	1018	38	0	
2	0	0	0	0	539	510	0	1018	39	1	
3	0	0	0	0	537	509	0	1018	38	1	
4	0	0	0	0	527	507	0	1018	38	1	
5	0	0	0	0	501	510	0	1018	38	1	
6	0	0	0	0	472	511	0	1018	38	1	
7	0	0	0	0	454	510	0	1018	38	0	
8	0	0	0	0	495	510	0	1018	38	0	
9	0	0	0	0	517	511	0	1018	38	0	
10	0	0	0	0	536	510	0	1018	38	0	
11	0	0	0	0	515	509	0	1018	38	1	
12	0	0	0	0	511	509	0	1018	38	1	
13	0	0	0	0	524	507	0	1018	38	1	
14	0	0	0	0	561	505	0	1018	38	1	
15	0	0	0	0	556	504	0	1018	38	0	
0	0	0	0	0	513	506	0	1018	38	0	
1	0	0	0	0	487	508	0	1018	38	0	
2	0	0	0	0	435	507	0	1018	39	0	
3	0	0	0	0	455	508	0	1018	38	1	
4	0	0	0	0	448	508	0	1018	38	1	
5	0	0	0	0	497	509	0	1018	38	1	
6	0	0	0	0	542	508	0	1017	38	1	
7	0	0	0	0	544	506	0	784	38	0	
8	0	0	0	0	520	506	0	335	38	0	
9	0	0	0	0	503	507	0	0	38	0	
10	0	0	0	0	495	508	0	0	38	0	
11	0	0	0	0	504	509	0	0	38	1	
12	0	0	0	0	512	507	0	0	38	1	
13	0	0	0	0	517	508	0	0	38	1	
14	0	0	0	0	523	511	0	0	38	1	
15	0	0	0	0	504	511	0	0	38	1	
0	0	0	0	0	510	511	0	0	38	0	
1	0	0	0	0	533	510	0	0	38	0	
2	0	0	0	0	553	509	0	0	38	0	
3	0	0	0	0	548	510	0	0	38	1	
4	0	0	0	0	519	509	0	0	38	1	
5	0	0	0	0	457	510	0	0	38	1	
6	0	0	0	0	450	509	0	0	38	1	
7	0	0	0	0	468	510	0	0	38	1	
8	0	0	0	0	489	511	0	0	38	0	
9	0	0	0	0	497	510	0	0	38	0	
10	0	0	0	0	513	510	0	0	38	0	
11	0	0	0	0	526	509	0	0	38	0	
12	0	0	0	0	530	508	0	0	38	1	
13	0	0	0	0	521	509	0	0	38	1	
14	0	0	0	0	520	510	0	0	38	1	
15	0	0	0	0	526	510	0	0	38	1	
0	0	0	0	0	509	509	0	0	38	0	
1	0	0	0	0	520	506	0	0	38	0	
2	0	0	0	0	528	506	0	0	38	0	
3	0	0	0	0	547	505	0	0	38	0	
4	0	0	0	0	544	508	0	0	38	1	
5	0	0	0	0	502	507	0	0	38	1	
6	0	0	0	0	482	508	0	0	38	1	
7	0	0	0	0	476	508	0	0	38	1	
8	0	0	0	0	508	508	0	0	38	1	
9	0	0	0	0	519	507	0	0	38	0	
10	0	0	0	0	487	508	0	0	39	0	
11	0	0	0	0	499	507	0	0	38	0	
12	0	0	0	0	487	507	0	0	38	1	
13	0	0	0	0	479	507	0	0	38	1	
14	0	0	0	0	504	506	0	0	38	1	
15	0	0	0	0	519	506	0	0	38	1	
0	0	0	0	0	503	504	0	0	38	1	
1	0	0	0	0	535	504	0	0	38	0	
2	0	0	0	0	536	506	0	0	39	0	
3	0	0	0	0	531	506	0	0	38	0	
4	0	0	0	0	503	505	0	0	38	0	
5	0	0	0	0	492	507	0	0	38	1	
6	0	0	0	0	487	507	0	0	38	1	
7	0	0	0	0	495	506	0	0	38	1	
8	0	0	0	0	509	507	0	0	38	1	
9	0	0	0	0	504	507	0	0	38	1	
10	0	0	0	0	494	505	0	0	39	0	
11	0	0	0	0	511	507	0	0	38	0	
12	0	0	0	0	507	508	0	0	38	1	
13	0	0	0	0	508	508	0	528	38	1	
14	0	0	0	0	534	507	0	974	38	1	
15	0	0	0	0	543	507	0	1018	38	1	
0	0	0	0	0	533	505	0	1017	38	1	
1	0	0	0	0	523	507	0	1018	38	1	
2	0	0	0	0	519	508	0	1018	38	0	
3	0	0	0	0	491	508	0	1018	38	0	
4	0	0	0	0	456	505	0	1018	38	0	
5	0	0	0	0	505	504	0	1018	38	1	
6	0	0	0	0	510	503	0	1018	38	1	
7	0	0	0	0	499	504	0	1018	38	1	
8	0	0	0	0	504	503	0	1018	38	1	
9	0	0	0	0	531	504	0	1018	38	1	
10	0	0	0	0	548	503	0	1018	39	0	
11	0	0	0	0	547	505	0	1018	38	0	
12	0	0	0	0	553	507	0	1018	38	0	
13	0	0	0	0	535	505	0	1018	38	0	
14	0	0	0	0	481	505	0	1018	38	1	
15	0	0	0	0	430	506	0	1018	38	1	
0	0	0	0	0	433	506	0	1018	38	1	
1	0	0	0	0	477	503	0	1018	38	1	
2	0	0	0	0	495	504	0	1018	39	0	
3	0	0	0	0	490	502	0	1018	38	0	
4	0	0	0	0	519	503	0	1018	38	0	
5	0	0	0	0	532	504	0	1018	38	0	
6	0	0	0	0	537	504	0	1018	38	1	
7	0	0	0	0	547	504	0	1018	38	1	
8	0	0	0	0	560	505	0	1018	38	1	
9	0	0	0	0	535	505	0	1018	38	1	
10	0	0	0	0	508	507	0	1018	38	1	
11	0	0	0	0	466	507	0	1018	38	0	
12	0	0	0	0	487	506	0	1018	38	0	
13	0	0	0	0	521	508	0	1018	38	0	
14	0	0	0	0	491	509	0	1018	38	0	
15	0	0	0	0	476	510	0	1018	38	1	
0	0	0	0	0	494	508	0	1018	38	1	
1	0	0	0	0	504	507	0	1018	38	1	
2	0	0	0	0	519	507	0	1018	39	1	
3	0	0	0	0	516	509	0	1018	38	0	
4	0	0	0	0	506	508	0	1018	38	0	
5	0	0	0	0	512	508	0	1018	38	0	
6	0	0	0	0	518	507	0	1018	38	0	
7	0	0	0	0	517	508	0	1018	38	1	
8	0	0	0	0	529	508	0	1018	38	1	
9	0	0	0	0	530	508	0	1018	38	1	
10	0	0	0	0	526	508	0	1018	39	1	
11	0	0	0	0	509	508	0	1018	38	0	
12	0	0	0	0	481	510	0	1018	38	0	
13	0	0	0	0	502	509	0	1018	38	0	
14	0	0	0	0	512	509	0	1018	38	0	
15	0	0	0	0	516	508	0	1018	38	0	
0	0	0	0	0	514	507	0	1018	38	1	
1	0	0	0	0	535	508	0	1018	38	1	
2	0	0	0	0	523	507	0	1018	39	1	
3	0	0	0	0	504	508	0	1018	38	1	
4	0	0	0	0	504	509	0	1018	38	0	
5	0	0	0	0	480	509	0	1018	38	0	
6	0	0	0	0	485	509	0	1018	38	0	
7	0	0	0	0	511	509	0	1018	38	0	
8	0	0	0	0	517	509	0	1018	38	1	
9	0	0	0	0	496	510	0	1018	38	1	
10	0	0	0	0	500	508	0	1018	39	1	
11	0	0	0	0	522	507	0	1018	38	1	
12	0	0	0	0	525	506	0	1018	38	0	
13	0	0	0	0	531	507	0	1018	38	0	
14	0	0	0	0	513	509	0	1018	38	0	
15	0	0	0	0	503	510	0	1018	38	0	
0	0	0	0	0	517	509	0	1018	38	1	
1	0	0	0	0	489	508	0	1018	38	1	
2	0	0	0	0	492	507	0	1018	38	1	
3	0	0	0	0	506	507	0	1018	38	1	
4	0	0	0	0	513	508	0	1018	38	0	
5	0	0	0	0	511	508	0	1018	38	0	
6	0	0	0	0	525	508	0	1018	38	0	
7	0	0	0	0	521	510	0	1018	38	0	
8	0	0	0	0	509	509	0	1018	38	0	
9	0	0	0	0	485	508	0	1018	38	1	
10	0	0	0	0	474	509	0	1018	39	1	
11	0	0	0	0	494	508	0	1018	38	1	
12	0	0	0	0	490	507	0	1018	38	0	
13	0	0	0	0	508	508	0	749	38	0	
14	0	0	0	0	536	508	0	522	38	0	
15	0	0	0	0	522	508	0	332	38	0	
0	0	0	0	0	513	507	0	191	38	0	
1	0	0	0	0	522	507	0	158	38	1	
2	0	0	0	0	509	507	0	331	39	1	
3	0	0	0	0	547	506	0	541	38	1	
4	0	0	0	0	578	507	0	611	38	1	
5	0	0	0	0	550	507	0	575	38	0	
6	0	0	0	0	506	505	0	536	38	0	
7	0	0	0	0	455	504	0	311	38	0	
8	0	0	0	0	407	504	0	82	38	0	
9	0	0	0	0	439	505	0	0	38	0	
10	0	0	0	0	449	507	0	0	39	1	
11	0	0	0	0	482	508	0	0	38	1	
12	0	0	0	0	536	508	0	0	38	1	
13	0	0	0	0	551	509	0	0	38	0	
14	0	0	0	0	540	508	0	0	38	0	
15	0	0	0	0	537	508	0	0	38	0	
0	0	0	0	0	529	509	0	0	38	0	
1	0	0	0	0	521	510	0	0	38	0	
2	0	0	0	0	508	507	0	0	39	1	
3	0	0	0	0	530	508	0	0	38	1	
4	0	0	0	0	545	508	0	0	38	1	
5	0	0	0	0	532	508	0	0	38	0	
6	0	0	0	0	504	509	0	0	38	0	
7	0	0	0	0	496	510	0	0	38	0	
8	0	0	0	0	483	510	0	0	38	0	
9	0	0	0	0	454	509	0	0	38	0	
10	0	0	0	0	496	510	0	0	38	1	
11	0	0	0	0	539	509	0	348	38	1	
12	0	0	0	0	541	507	0	568	38	1	
13	0	0	0	0	524	506	0	741	38	0	
14	0	0	0	0	530	505	0	916	38	0	
15	0	0	0	0	474	506	0	1017	38	0	
0	0	0	0	0	460	508	0	1017	38	0	
1	0	0	0	0	490	508	0	1018	38	0	
2	0	0	0	0	508	508	0	934	39	0	
3	0	0	0	0	504	508	0	715	38	1	
4	0	0	0	0	539	507	0	671	38	1	
5	0	0	0	0	528	507	0	764	38	1	
6	0	0	0	0	518	507	0	930	38	0	
7	0	0	0	0	497	506	0	1017	38	0	
8	0	0	0	0	489	507	0	1017	38	0	
9	0	0	0	0	514	508	0	1018	38	0	
10	0	0	0	0	516	509	0	1018	39	0	
11	0	0	0	0	523	507	0	1018	38	1	
12	0	0	0	0	529	507	0	743	38	1	
13	0	0	0	0	531	507	0	336	38	1	
14	0	0	0	0	546	508	0	0	38	0	
15	0	0	0	0	516	508	0	0	38	0	
0	0	0	0	0	497	507	0	0	38	0	
1	0	0	0	0	503	507	0	0	38	0	
2	0	0	0	0	464	507	0	0	39	0	
3	0	0	0	0	436	506	0	0	38	1	
4	0	0	0	0	489	506	0	0	38	1	
5	0	0	0	0	513	505	0	0	38	1	
6	0	0	0	0	532	505	0	0	38	1	
7	0	0	0	0	548	504	0	0	38	0	
8	0	0	0	0	531	505	0	0	38	0	
9	0	0	0	0	486	508	0	0	38	0	
10	0	0	0	0	482	507	0	0	39	0	
11	0	0	0	0	508	508	0	0	38	1	
12	0	0	0	0	522	508	0	0	38	1	
13	0	0	0	0	540	506	0	0	38	1	
14	0	0	0	0	563	506	0	0	38	1	
15	0	0	0	0	516	508	0	0	38	0	
0	0	0	0	0	470	508	0	0	38	0	
1	0	0	0	0	458	510	0	0	38	0	
2	0	0	0	0	470	508	0	0	39	0	
3	0	0	0	0	471	510	0	0	38	1	
4	0	0	0	0	454	511	0	0	38	1	
5	0	0	0	0	508	509	0	0	38	1	
6	0	0	0	0	561	508	0	0	38	1	
7	0	0	0	0	550	509	0	0	38	0	
8	0	0	0	0	531	509	0	0	38	0	
9	0	0	0	0	519	507	0	0	38	0	
10	0	0	0	0	520	508	0	0	39	0	
11	0	0	0	0	520	507	0	0	38	0	
12	0	0	0	0	542	508	0	0	38	1	
13	0	0	0	0	561	508	0	0	38	1	
14	0	0	0	0	557	508	0	0	38	1	
15	0	0	0	0	525	507	0	0	38	1	
0	0	0	0	0	480	508	0	0	38	0	
1	0	0	0	0	473	510	0	0	38	0	
2	0	0	0	0	488	512	0	0	38	0	
3	0	0	0	0	466	511	0	0	38	0	
4	0	0	0	0	454	510	0	0	38	1	
5	0	0	0	0	510	511	0	0	38	1	
6	0	0	0	0	507	511	0	0	38	1	
7	0	0	0	0	476	510	0	0	38	1	
8	0	0	0	0	486	508	0	0	38	0	
9	0	0	0	0	518	509	0	0	38	0	
10	0	0	0	0	540	510	0	0	38	0	
11	0	0	0	0	515	509	0	0	38	0	
12	0	0	0	0	522	508	0	0	38	1	
13	0	0	0	0	528	506	0	0	38	1	
14	0	0	0	0	510	506	0	0	38	1	
15	0	0	0	0	511	508	0	0	38	1	
0	0	0	0	0	497	508	0	0	38	1	
1	0	0	0	0	520	508	0	0	38	0	
2	0	0	0	0	536	507	0	0	38	0	
3	0	0	0	0	543	507	0	0	38	0	
4	0	0	0	0	554	508	0	0	38	0	
5	0	0	0	0	554	509	0	0	38	1	
6	0	0	0	0	534	509	0	0	38	1	
7	0	0	0	0	486	509	0	0	38	1	
8	0	0	0	0	450	509	0	0	38	1	
9	0	0	0	0	413	507	0	0	38	1	
10	0	0	0	0	447	507	0	0	38	0	
11	0	0	0	0	461	506	0	0	38	0	
12	0	0	0	0	508	507	0	0	38	0	
13	0	0	0	0	508	505	0	0	38	1	
14	0	0	0	0	523	506	0	0	38	1	
15	0	0	0	0	534	506	0	0	38	1	
0	0	0	0	0	535	506	0	0	38	1	
1	0	0	0	0	521	507	0	0	38	0	
2	0	0	0	0	516	506	0	0	38	0	
3	0	0	0	0	529	505	0	0	38	0	
4	0	0	0	0	539	507	0	0	38	0	
5	0	0	0	0	522	506	0	0	38	1	
6	0	0	0	0	487	508	0	0	38	1	
7	0	0	0	0	480	509	0	0	38	1	
8	0	0	0	0	504	509	0	0	38	1	
9	0	0	0	0	519	508	0	0	38	1	
10	0	0	0	0	504	508	0	0	39	0	
11	0	0	0	0	497	508	0	0	38	0	
12	0	0	0	0	511	509	0	0	38	1	
13	0	0	0	0	501	507	0	0	38	0	
14	0	0	0	0	513	506	0	59	38	1	
15	0	0	0	0	530	505	0	71	38	1	
0	0	0	0	0	534	504	0	7	38	1	
1	0	0	0	0	531	506	0	0	38	1	
2	0	0	0	0	541	506	0	0	39	0	
3	0	0	0	0	556	506	0	0	38	0	
4	0	0	0	0	558	506	0	0	38	0	
5	0	0	0	0	527	508	0	186	38	0	
6	0	0	0	0	463	508	0	407	38	1	
7	0	0	0	0	408	509	0	595	38	1	
8	0	0	0	0	441	511	0	793	38	1	
9	0	0	0	0	441	510	0	1018	38	1	
10	0	0	0	0	472	509	0	1018	39	1	
11	0	0	0	0	512	508	0	1018	38	0	
12	0	0	0	0	528	507	0	1018	38	0	
13	0	0	0	0	519	506	0	1018	38	0	
14	0	0	0	0	504	508	0	1018	38	1	
15	0	0	0	0	516	507	0	1018	38	1	
0	0	0	0	0	539	508	0	1018	38	1	
1	0	0	0	0	547	508	0	1018	38	1	
2	0	0	0	0	543	508	0	1018	39	1	
3	0	0	0	0	547	509	0	1018	38	0	
4	0	0	0	0	552	508	0	1018	38	0	
5	0	0	0	0	520	509	0	1018	38	0	
6	0	0	0	0	465	508	0	1018	38	0	
7	0	0	0	0	461	508	0	1018	38	1	
8	0	0	0	0	486	508	0	1018	38	1	
9	0	0	0	0	493	507	0	1018	38	1	
10	0	0	0	0	512	506	0	1018	39	1	
11	0	0	0	0	522	505	0	1018	38	0	
12	0	0	0	0	517	507	0	1018	38	0	
13	0	0	0	0	515	508	0	1018	38	0	
14	0	0	0	0	525	508	0	1018	38	0	
15	0	0	0	0	558	507	0	1018	38	1	
0	0	0	0	0	571	509	0	1018	38	1	
1	0	0	0	0	549	508	0	1018	38	1	
2	0	0	0	0	519	508	0	1018	39	1	
3	0	0	0	0	481	508	0	1018	38	0	
4	0	0	0	0	436	510	0	1018	38	0	
5	0	0	0	0	429	508	0	1018	38	0	
6	0	0	0	0	435	508	0	1018	38	0	
7	0	0	0	0	474	508	0	1018	38	1	
8	0	0	0	0	537	509	0	1018	38	1	
9	0	0	0	0	517	509	0	1018	38	1	
10	0	0	0	0	502	508	0	1018	39	1	
11	0	0	0	0	521	508	0	1018	38	1	
12	0	0	0	0	537	507	0	1018	38	0	
13	0	0	0	0	566	506	0	1018	38	0	
14	0	0	0	0	549	504	0	1018	38	0	
15	0	0	0	0	526	506	0	1018	38	0	
0	0	0	0	0	504	505	0	1018	38	1	
1	0	0	0	0	478	508	0	1018	38	1	
2	0	0	0	0	433	510	0	1018	39	1	
3	0	0	0	0	459	508	0	1018	38	1	
4	0	0	0	0	507	507	0	1018	38	0	
5	0	0	0	0	526	507	0	1018	38	0	
6	0	0	0	0	531	507	0	1018	38	0	
7	0	0	0	0	536	508	0	1018	38	0	
8	0	0	0	0	533	511	0	1018	38	1	
9	0	0	0	0	528	510	0	1017	38	1	
10	0	0	0	0	528	510	0	1018	39	1	
11	0	0	0	0	507	510	0	1018	38	1	
12	0	0	0	0	499	508	0	1018	38	0	
13	0	0	0	0	507	507	0	1018	38	0	
14	0	0	0	0	509	507	0	1018	38	0	
15	0	0	0	0	512	507	0	1018	38	0	
0	0	0	0	0	529	508	0	1018	38	0	
1	0	0	0	0	572	508	0	1018	38	1	
2	0	0	0	0	566	510	0	1018	38	1	
3	0	0	0	0	531	510	0	1018	38	1	
4	0	0	0	0	490	511	0	1018	38	1	
5	0	0	0	0	489	511	0	1018	38	0	
6	0	0	0	0	423	510	0	1018	38	0	
7	0	0	0	0	428	508	0	1018	38	0	
8	0	0	0	0	477	510	0	1018	38	0	
9	0	0	0	0	508	508	0	1018	38	1	
10	0	0	0	0	507	508	0	1018	39	1	
11	0	0	0	0	510	510	0	1018	38	1	
12	0	0	0	0	495	509	0	1018	38	1	
13	0	0	0	0	492	508	0	1018	38	0	
14	0	0	0	0	517	507	0	1018	38	0	
15	0	0	0	0	530	506	0	1018	38	0	
0	0	0	0	0	523	504	0	1018	38	0	
1	0	0	0	0	544	505	0	1018	38	0	
2	0	0	0	0	529	506	0	1018	39	1	
3	0	0	0	0	519	505	0	1018	38	1	
4	0	0	0	0	518	505	0	1018	38	1	
5	0	0	0	0	508	505	0	1018	38	0	
6	0	0	0	0	505	505	0	1018	38	0	
7	0	0	0	0	505	507	0	1018	38	0	
8	0	0	0	0	516	508	0	1018	38	0	
9	0	0	0	0	519	507	0	1017	38	0	
10	0	0	0	0	539	507	0	622	39	1	
11	0	0	0	0	529	508	0	271	38	1	
12	0	0	0	0	506	509	0	0	38	1	
13	0	0	0	0	476	510	0	0	38	1	
14	0	0	0	0	453	508	0	0	38	0	
15	0	0	0	0	494	508	0	0	38	0	
0	0	0	0	0	502	507	0	0	38	0	
1	0	0	0	0	483	507	0	0	38	0	
2	0	0	0	0	513	507	0	0	38	0	
3	0	0	0	0	533	506	0	0	38	1	
4	0	0	0	0	529	505	0	0	38	1	
5	0	0	0	0	532	505	0	0	38	1	
6	0	0	0	0	529	505	0	0	38	0	
7	0	0	0	0	494	504	0	0	38	0	
8	0	0	0	0	506	504	0	0	38	0	
9	0	0	0	0	499	505	0	0	38	0	
10	0	0	0	0	500	506	0	0	39	0	
11	0	0	0	0	499	507	0	0	38	0	
12	0	0	0	0	496	507	0	0	38	1	
13	0	0	0	0	503	506	0	0	38	1	
14	0	0	0	0	509	505	0	0	38	0	
15	0	0	0	0	521	507	0	0	38	0	
0	0	0	0	0	530	507	0	0	38	0	
1	0	0	0	0	538	505	0	0	38	0	
2	0	0	0	0	528	506	0	0	39	0	
3	0	0	0	0	542	507	0	0	38	0	
4	0	0	0	0	498	507	0	0	38	1	
5	0	0	0	0	485	507	0	0	38	1	
6	0	0	0	0	509	508	0	0	38	0	
7	0	0	0	0	504	508	0	0	38	0	
8	0	0	0	0	521	507	0	0	38	0	
9	0	0	0	0	536	508	0	0	38	0	
10	0	0	0	0	495	508	0	0	39	0	
11	0	0	0	0	454	509	0	0	38	1	
12	0	0	0	0	430	508	0	0	38	1	
13	0	0	0	0	435	508	0	0	38	1	
14	0	0	0	0	477	508	0	0	38	1	
15	0	0	0	0	528	507	0	0	38	0	
0	0	0	0	0	547	506	0	0	38	0	
1	0	0	0	0	545	506	0	0	38	0	
2	0	0	0	0	542	505	0	0	39	0	
3	0	0	0	0	532	504	0	0	38	0	
4	0	0	0	0	522	504	0	0	38	1	
5	0	0	0	0	516	505	0	0	38	1	
6	0	0	0	0	493	507	0	0	38	1	
7	0	0	0	0	494	507	0	0	38	0	
8	0	0	0	0	509	506	0	0	38	0	
9	0	0	0	0	524	508	0	0	38	0	
10	0	0	0	0	522	508	0	0	38	0	
11	0	0	0	0	516	507	0	0	38	0	
12	0	0	0	0	517	508	0	0	38	1	
13	0	0	0	0	514	508	0	0	38	1	
14	0	0	0	0	519	507	0	0	38	1	
15	0	0	0	0	490	508	0	0	38	1	
0	0	0	0	0	483	511	0	0	38	0	
1	0	0	0	0	501	511	0	0	38	0	
2	0	0	0	0	500	512	0	0	39	0	
3	0	0	0	0	499	511	0	0	38	0	
4	0	0	0	0	519	510	0	0	38	1	
5	0	0	0	0	518	511	0	0	38	1	
6	0	0	0	0	536	508	0	0	38	1	
7	0	0	0	0	539	507	0	0	38	1	
8	0	0	0	0	516	508	0	0	38	0	
9	0	0	0	0	517	508	0	0	38	0	
10	0	0	0	0	516	508	0	0	38	0	
11	0	0	0	0	494	510	0	0	38	0	
12	0	0	0	0	479	508	0	0	38	0	
13	0	0	0	0	490	508	0	0	38	1	
14	0	0	0	0	496	508	0	0	38	1	
15	0	0	0	0	492	511	0	0	38	1	
0	0	0	0	0	478	511	0	0	38	0	
1	0	0	0	0	507	511	0	0	38	0	
2	0	0	0	0	525	512	0	0	39	0	
3	0	0	0	0	511	512	0	0	38	0	
4	0	0	0	0	500	512	0	0	38	0	
5	0	0	0	0	498	511	0	0	38	1	
6	0	0	0	0	499	510	0	0	38	1	
7	0	0	0	0	510	510	0	0	38	1	
8	0	0	0	0	515	510	0	0	38	1	
9	0	0	0	0	533	508	0	0	38	0	
10	0	0	0	0	552	507	0	0	38	0	
11	0	0	0	0	558	506	0	0	38	0	
12	0	0	0	0	533	505	0	0	38	0	
13	0	0	0	0	519	508	0	0	38	1	
14	0	0	0	0	502	508	0	0	38	1	
15	0	0	0	0	446	508	0	0	38	1	
0	0	0	0	0	462	508	0	0	38	1	
1	0	0	0	0	488	508	0	305	38	1	
2	0	0	0	0	499	508	0	327	39	0	
3	0	0	0	0	512	508	0	293	38	0	
4	0	0	0	0	512	509	0	260	38	0	
5	0	0	0	0	524	510	0	221	38	0	
6	0	0	0	0	542	510	0	57	38	1	
7	0	0	0	0	541	510	0	0	38	1	
8	0	0	0	0	563	510	0	0	38	1	
9	0	0	0	0	538	509	0	0	38	0	
10	0	0	0	0	493	509	0	0	38	0	
11	0	0	0	0	489	508	0	0	38	0	
12	0	0	0	0	467	509	0	194	38	0	
13	0	0	0	0	445	508	0	472	38	1	
14	0	0	0	0	452	508	0	874	38	1	
15	0	0	0	0	485	508	0	1018	38	1	
0	0	0	0	0	498	509	0	1018	38	1	
1	0	0	0	0	512	509	0	1018	38	1	
2	0	0	0	0	534	509	0	1018	39	0	
3	0	0	0	0	537	507	0	1018	38	0	
4	0	0	0	0	530	508	0	1018	38	0	
5	0	0	0	0	522	507	0	1018	38	0	
6	0	0	0	0	516	508	0	1018	38	1	
7	0	0	0	0	518	508	0	1018	38	1	
8	0	0	0	0	517	508	0	1018	38	1	
9	0	0	0	0	521	508	0	1018	38	1	
10	0	0	0	0	524	508	0	1018	39	0	
11	0	0	0	0	524	508	0	1018	38	0	
12	0	0	0	0	522	509	0	1018	38	0	
13	0	0	0	0	518	507	0	1018	38	0	
14	0	0	0	0	522	508	0	1018	38	1	
15	0	0	0	0	495	508	0	1018	38	1	
0	0	0	0	0	458	508	0	1018	38	1	
1	0	0	0	0	478	508	0	1018	38	1	
2	0	0	0	0	480	508	0	1018	39	1	
3	0	0	0	0	498	509	0	1018	38	0	
4	0	0	0	0	539	508	0	1018	38	0	
5	0	0	0	0	558	507	0	1018	38	0	
6	0	0	0	0	536	508	0	1018	38	1	
7	0	0	0	0	534	507	0	1018	38	1	
8	0	0	0	0	518	508	0	1018	38	1	
9	0	0	0	0	478	507	0	1017	38	1	
10	0	0	0	0	434	506	0	1018	38	1	
11	0	0	0	0	447	508	0	1018	38	0	
12	0	0	0	0	520	507	0	1018	38	0	
13	0	0	0	0	536	507	0	1018	38	0	
14	0	0	0	0	521	507	0	1018	38	0	
15	0	0	0	0	508	504	0	1018	38	1	
0	0	0	0	0	497	505	0	1018	38	1	
1	0	0	0	0	534	506	0	1018	38	1	
2	0	0	0	0	548	508	0	1018	38	1	
3	0	0	0	0	536	508	0	1018	38	1	
4	0	0	0	0	539	507	0	1018	38	0	
5	0	0	0	0	534	508	0	1018	38	0	
6	0	0	0	0	536	507	0	1018	38	0	
7	0	0	0	0	506	505	0	1018	38	0	
8	0	0	0	0	451	506	0	1018	38	1	
9	0	0	0	0	434	505	0	691	38	1	
10	0	0	0	0	439	506	0	136	39	1	
11	0	0	0	0	474	507	0	0	38	1	
12	0	0	0	0	489	508	0	0	38	0	
13	0	0	0	0	517	509	0	0	38	0	
14	0	0	0	0	548	509	0	0	38	0	
15	0	0	0	0	550	510	0	0	38	0	
0	0	0	0	0	528	509	0	0	38	1	
1	0	0	0	0	517	508	0	0	38	1	
2	0	0	0	0	519	508	0	0	39	1	
3	0	0	0	0	519	509	0	0	38	1	
4	0	0	0	0	519	509	0	0	38	0	
5	0	0	0	0	529	506	0	0	38	0	
6	0	0	0	0	535	504	0	0	38	0	
7	0	0	0	0	544	504	0	0	38	0	
8	0	0	0	0	544	504	0	0	38	1	
9	0	0	0	0	523	507	0	0	38	1	
10	0	0	0	0	477	506	0	0	38	1	
11	0	0	0	0	437	506	0	0	38	1	
12	0	0	0	0	466	508	0	0	38	0	
13	0	0	0	0	472	507	0	0	38	0	
14	0	0	0	0	522	506	0	0	38	0	
15	0	0	0	0	511	506	0	0	38	0	
0	0	0	0	0	492	507	0	0	38	0	
1	0	0	0	0	493	508	0	0	38	1	
2	0	0	0	0	515	507	0	0	38	1	
3	0	0	0	0	524	506	0	0	38	1	
4	0	0	0	0	504	504	0	0	38	1	
5	0	0	0	0	503	504	0	0	38	0	
6	0	0	0	0	524	505	0	0	38	0	
7	0	0	0	0	521	506	0	0	38	0	
8	0	0	0	0	526	508	0	0	38	0	
9	0	0	0	0	540	508	0	0	38	1	
10	0	0	0	0	533	508	0	0	39	1	
11	0	0	0	0	556	510	0	0	38	1	
12	0	0	0	0	559	511	0	0	38	1	
13	0	0	0	0	527	511	0	0	38	0	
14	0	0	0	0	467	509	0	0	38	0	
15	0	0	0	0	456	507	0	0	38	0	
0	0	0	0	0	458	507	0	0	38	0	
1	0	0	0	0	449	509	0	0	38	1	
2	0	0	0	0	480	509	0	0	39	1	
3	0	0	0	0	506	510	0	0	38	1	
4	0	0	0	0	518	510	0	0	38	1	
5	0	0	0	0	534	512	0	0	38	0	
6	0	0	0	0	516	512	0	0	38	0	
7	0	0	0	0	513	510	0	0	38	0	
8	0	0	0	0	532	508	0	0	38	0	
9	0	0	0	0	534	508	0	617	38	0	
10	0	0	0	0	526	508	0	1017	39	1	
11	0	0	0	0	517	509	0	1017	38	1	
12	0	0	0	0	513	508	0	1018	38	1	
13	0	0	0	0	508	510	0	1018	38	0	
14	0	0	0	0	475	510	0	1018	38	0	
15	0	0	0	0	464	510	0	1018	38	0	
0	0	0	0	0	463	510	0	1018	38	0	
1	0	0	0	0	498	509	0	1018	38	0	
2	0	0	0	0	507	509	0	1018	38	1	
3	0	0	0	0	513	510	0	1018	38	1	
4	0	0	0	0	534	510	0	1018	38	1	
5	0	0	0	0	517	508	0	1018	38	1	
6	0	0	0	0	536	509	0	1018	38	0	
7	0	0	0	0	546	509	0	1018	38	0	
8	0	0	0	0	538	510	0	1018	38	0	
9	0	0	0	0	526	510	0	1017	38	0	
10	0	0	0	0	508	510	0	1018	38	0	
11	0	0	0	0	489	511	0	1018	38	1	
12	0	0	0	0	512	511	0	1018	38	1	
13	0	0	0	0	532	508	0	1018	38	1	
14	0	0	0	0	525	509	0	1018	38	0	
15	0	0	0	0	504	510	0	1018	38	0	
0	0	0	0	0	498	508	0	1018	38	0	
1	0	0	0	0	505	507	0	1018	38	0	
2	0	0	0	0	532	507	0	1018	38	0	
3	0	0	0	0	535	507	0	1018	38	1	
4	0	0	0	0	519	507	0	1018	38	1	
5	0	0	0	0	464	508	0	1018	38	1	
6	0	0	0	0	448	507	0	1018	38	0	
7	0	0	0	0	473	508	0	1018	38	0	
8	0	0	0	0	451	509	0	1018	38	0	
9	0	0	0	0	494	508	0	1018	38	0	
10	0	0	0	0	535	509	0	1018	39	0	
11	0	0	0	0	541	509	0	1018	38	0	
12	0	0	0	0	535	509	0	1018	38	1	
13	0	0	0	0	527	506	0	1018	38	1	
14	0	0	0	0	507	507	0	1018	38	0	
15	0	0	0	0	477	506	0	1018	38	0	
0	0	0	0	0	491	506	0	1018	38	0	
1	0	0	0	0	508	507	0	1018	38	0	
2	0	0	0	0	515	508	0	1018	39	0	
3	0	0	0	0	508	508	0	1018	38	0	
4	0	0	0	0	512	507	0	1018	38	1	
5	0	0	0	0	519	507	0	1018	38	1	
6	0	0	0	0	520	506	0	1018	38	1	
7	0	0	0	0	516	505	0	1018	38	0	
8	0	0	0	0	521	506	0	1018	38	0	
9	0	0	0	0	526	507	0	1018	38	0	
10	0	0	0	0	517	509	0	1018	39	0	
11	0	0	0	0	524	509	0	1018	38	0	
12	0	0	0	0	527	509	0	1018	38	0	
13	0	0	0	0	530	509	0	1018	38	1	
14	0	0	0	0	519	509	0	1018	38	1	
15	0	0	0	0	496	509	0	1018	38	0	
0	0	0	0	0	512	508	0	1018	38	0	
1	0	0	0	0	510	508	0	1018	38	0	
2	0	0	0	0	494	509	0	1018	38	0	
3	0	0	0	0	479	509	0	1018	38	0	
4	0	0	0	0	478	510	0	1018	38	0	
5	0	0	0	0	488	510	0	1018	38	1	
6	0	0	0	0	507	509	0	1018	38	1	
7	0	0	0	0	507	510	0	1018	38	0	
8	0	0	0	0	498	509	0	1018	38	0	
9	0	0	0	0	502	508	0	1018	38	0	
10	0	0	0	0	517	508	0	1018	38	0	
11	0	0	0	0	524	509	0	1018	38	0	
12	0	0	0	0	519	508	0	1018	38	0	
13	0	0	0	0	517	508	0	1018	38	1	
14	0	0	0	0	515	508	0	1018	38	1	
15	0	0	0	0	519	507	0	1018	38	1	
0	0	0	0	0	539	507	0	1018	38	0	
1	0	0	0	0	559	509	0	1018	38	0	
2	0	0	0	0	554	508	0	894	39	0	
3	0	0	0	0	553	507	0	732	38	0	
4	0	0	0	0	521	508	0	552	38	0	
5	0	0	0	0	499	507	0	496	38	1	
6	0	0	0	0	438	507	0	231	38	1	
7	0	0	0	0	394	506	0	0	38	1	
8	0	0	0	0	446	505	0	0	38	0	
9	0	0	0	0	493	507	0	0	38	0	
10	0	0	0	0	528	508	0	0	39	0	
11	0	0	0	0	521	510	0	0	38	0	
12	0	0	0	0	519	508	0	0	38	0	
13	0	0	0	0	501	506	0	0	38	1	
14	0	0	0	0	499	507	0	0	38	1	
15	0	0	0	0	508	508	0	0	38	1	
0	0	0	0	0	521	508	0	0	38	1	
1	0	0	0	0	523	508	0	0	38	0	
2	0	0	0	0	531	508	0	333	39	0	
3	0	0	0	0	526	509	0	445	38	0	
4	0	0	0	0	514	509	0	606	38	0	
5	0	0	0	0	492	508	0	728	38	1	
6	0	0	0	0	503	508	0	752	38	1	
7	0	0	0	0	527	507	0	866	38	1	
8	0	0	0	0	524	505	0	899	38	1	
9	0	0	0	0	516	507	0	740	38	0	
10	0	0	0	0	506	505	0	652	39	0	
11	0	0	0	0	507	506	0	652	38	0	
12	0	0	0	0	499	505	0	746	38	0	
13	0	0	0	0	516	505	0	806	38	0	
14	0	0	0	0	542	505	0	855	38	1	
15	0	0	0	0	524	504	0	861	38	1	
0	0	0	0	0	507	507	0	946	38	1	
1	0	0	0	0	491	507	0	1018	38	1	
2	0	0	0	0	472	506	0	1018	39	0	
3	0	0	0	0	500	507	0	1018	38	0	
4	0	0	0	0	513	507	0	1018	38	0	
5	0	0	0	0	519	508	0	1018	38	0	
6	0	0	0	0	526	508	0	1018	38	1	
7	0	0	0	0	520	507	0	1018	38	1	
8	0	0	0	0	501	508	0	1018	38	1	
9	0	0	0	0	477	506	0	1018	38	1	
10	0	0	0	0	477	505	0	868	39	0	
11	0	0	0	0	487	506	0	651	38	0	
12	0	0	0	0	504	508	0	379	38	0	
13	0	0	0	0	518	508	0	108	38	0	
14	0	0	0	0	518	508	0	0	38	0	
15	0	0	0	0	526	508	0	0	38	1	
0	0	0	0	0	529	508	0	0	38	1	
1	0	0	0	0	536	507	0	0	38	1	
2	0	0	0	0	552	507	0	0	38	0	
3	0	0	0	0	539	506	0	0	38	0	
4	0	0	0	0	508	507	0	0	38	0	
5	0	0	0	0	502	507	0	0	38	0	
6	0	0	0	0	488	508	0	0	38	1	
7	0	0	0	0	455	508	0	0	38	1	
8	0	0	0	0	485	507	0	0	38	1	
9	0	0	0	0	501	506	0	0	38	1	
10	0	0	0	0	513	506	0	0	38	1	
11	0	0	0	0	529	505	0	0	38	0	
12	0	0	0	0	523	506	0	0	38	0	
13	0	0	0	0	509	506	0	0	38	0	
14	0	0	0	0	505	506	0	0	38	0	
15	0	0	0	0	520	506	0	0	38	1	
0	0	0	0	0	526	507	0	0	38	1	
1	0	0	0	0	549	508	0	0	38	1	
2	0	0	0	0	550	505	0	0	39	1	
3	0	0	0	0	513	504	0	0	38	0	
4	0	0	0	0	494	503	0	0	38	0	
5	0	0	0	0	450	505	0	0	38	0	
6	0	0	0	0	455	507	0	0	38	0	
7	0	0	0	0	507	507	0	0	38	1	
8	0	0	0	0	511	508	0	0	38	1	
9	0	0	0	0	498	508	0	0	38	1	
10	0	0	0	0	491	509	0	0	39	1	
11	0	0	0	0	462	511	0	0	38	1	
12	0	0	0	0	473	511	0	0	38	0	
13	0	0	0	0	500	511	0	0	38	0	
14	0	0	0	0	528	510	0	0	38	0	
15	0	0	0	0	514	509	0	0	38	0	
0	0	0	0	0	507	508	0	0	38	1	
1	0	0	0	0	521	509	0	0	38	1	
2	0	0	0	0	530	511	0	0	39	1	
3	0	0	0	0	536	510	0	0	38	1	
4	0	0	0	0	535	509	0	184	38	0	
5	0	0	0	0	532	510	0	545	38	0	
6	0	0	0	0	524	510	0	877	38	0	
7	0	0	0	0	523	510	0	1018	38	0	
8	0	0	0	0	530	508	0	1018	38	1	
9	0	0	0	0	526	508	0	1018	38	1	
10	0	0	0	0	529	509	0	1018	39	1	
11	0	0	0	0	500	507	0	1018	38	1	
12	0	0	0	0	497	508	0	1018	38	1	
13	0	0	0	0	490	507	0	1018	38	0	
14	0	0	0	0	477	504	0	1018	38	0	
15	0	0	0	0	470	504	0	1018	38	0	
0	0	0	0	0	476	505	0	1018	38	1	
1	0	0	0	0	512	504	0	1018	38	1	
2	0	0	0	0	529	505	0	1018	39	1	
3	0	0	0	0	521	504	0	1018	38	1	
4	0	0	0	0	512	504	0	1018	38	0	
5	0	0	0	0	503	504	0	1018	38	0	
6	0	0	0	0	504	505	0	1018	38	0	
7	0	0	0	0	512	505	0	1018	38	0	
8	0	0	0	0	511	506	0	1018	38	1	
9	0	0	0	0	502	505	0	1017	38	1	
10	0	0	0	0	514	504	0	1018	38	1	
11	0	0	0	0	531	506	0	1018	38	1	
12	0	0	0	0	524	507	0	1018	38	1	
13	0	0	0	0	518	507	0	1018	38	0	
14	0	0	0	0	519	508	0	1018	38	0	
15	0	0	0	0	508	508	0	1018	38	0	
0	0	0	0	0	524	508	0	1018	38	0	
1	0	0	0	0	548	508	0	1018	38	1	
2	0	0	0	0	543	509	0	1018	38	1	
3	0	0	0	0	522	508	0	1018	38	1	
4	0	0	0	0	494	509	0	1018	38	1	
5	0	0	0	0	471	508	0	1018	38	0	
6	0	0	0	0	446	508	0	1018	38	0	
7	0	0	0	0	486	507	0	1018	38	0	
8	0	0	0	0	508	510	0	1018	38	0	
9	0	0	0	0	520	511	0	1018	38	0	
10	0	0	0	0	518	511	0	1017	39	1	
11	0	0	0	0	503	509	0	343	38	1	
12	0	0	0	0	448	510	0	0	38	1	
13	0	0	0	0	472	510	0	0	38	0	
14	0	0	0	0	535	511	0	0	38	0	
15	0	0	0	0	553	510	0	0	38	0	
0	0	0	0	0	541	509	0	0	38	0	
1	0	0	0	0	541	510	0	0	38	0	
2	0	0	0	0	571	510	0	0	38	1	
3	0	0	0	0	560	511	0	0	38	1	
4	0	0	0	0	511	510	0	0	38	1	
5	0	0	0	0	450	510	0	0	38	1	
6	0	0	0	0	430	509	0	0	38	0	
7	0	0	0	0	425	509	0	0	38	0	
8	0	0	0	0	443	508	0	0	38	0	
9	0	0	0	0	491	508	0	0	38	0	
10	0	0	0	0	519	510	0	0	39	1	
11	0	0	0	0	528	508	0	0	38	1	
12	0	0	0	0	515	510	0	0	38	1	
13	0	0	0	0	508	510	0	0	38	1	
14	0	0	0	0	520	510	0	0	38	0	
15	0	0	0	0	508	508	0	0	38	0	
0	0	0	0	0	517	508	0	0	38	0	
1	0	0	0	0	539	506	0	245	38	0	
2	0	0	0	0	538	507	0	659	39	0	
3	0	0	0	0	539	508	0	996	38	1	
4	0	0	0	0	542	508	0	1018	38	1	
5	0	0	0	0	531	507	0	1018	38	1	
6	0	0	0	0	499	506	0	1018	38	0	
7	0	0	0	0	483	508	0	1018	38	0	
8	0	0	0	0	469	510	0	1018	38	0	
9	0	0	0	0	476	510	0	1018	38	0	
10	0	0	0	0	503	510	0	1018	38	0	
11	0	0	0	0	540	508	0	1018	38	1	
12	0	0	0	0	549	506	0	1018	38	1	
13	0	0	0	0	548	505	0	1018	38	1	
14	0	0	0	0	537	504	0	1018	38	0	
15	0	0	0	0	512	503	0	1018	38	0	
0	0	0	0	0	504	506	0	1018	38	0	
1	0	0	0	0	498	507	0	1018	38	0	
2	0	0	0	0	523	508	0	1018	39	0	
3	0	0	0	0	562	509	0	1018	38	0	
4	0	0	0	0	575	510	0	1018	38	1	
5	0	0	0	0	546	510	0	1018	38	1	
6	0	0	0	0	492	510	0	1018	38	1	
7	0	0	0	0	443	510	0	1018	38	0	
8	0	0	0	0	401	509	0	1018	38	0	
9	0	0	0	0	404	509	0	1018	38	0	
10	0	0	0	0	423	507	0	1018	39	0	
11	0	0	0	0	479	509	0	1018	38	0	
12	0	0	0	0	525	509	0	1018	38	1	
13	0	0	0	0	536	509	0	1018	38	1	
14	0	0	0	0	516	509	0	1018	38	1	
15	0	0	0	0	530	509	0	1018	38	0	
0	0	0	0	0	540	508	0	1018	38	0	
1	0	0	0	0	531	506	0	1018	38	0	
2	0	0	0	0	530	506	0	1018	39	0	
3	0	0	0	0	528	506	0	1018	38	0	
4	0	0	0	0	514	506	0	1018	38	0	
5	0	0	0	0	497	508	0	1018	38	1	
6	0	0	0	0	527	507	0	1018	38	1	
7	0	0	0	0	560	507	0	1018	38	0	
8	0	0	0	0	559	510	0	1018	38	0	
9	0	0	0	0	539	509	0	1017	38	0	
10	0	0	0	0	520	510	0	1018	38	0	
11	0	0	0	0	490	510	0	1018	38	0	
12	0	0	0	0	452	509	0	1018	38	0	
13	0	0	0	0	471	509	0	1018	38	1	
14	0	0	0	0	463	511	0	1018	38	1	
15	0	0	0	0	498	510	0	1018	38	1	
0	0	0	0	0	492	510	0	1018	38	0	
1	0	0	0	0	480	510	0	1018	38	0	
2	0	0	0	0	488	511	0	1018	38	0	
3	0	0	0	0	504	510	0	1018	38	0	
4	0	0	0	0	520	510	0	1018	38	0	
5	0	0	0	0	535	509	0	1018	38	1	
6	0	0	0	0	535	508	0	1018	38	1	
7	0	0	0	0	532	508	0	1018	38	1	
8	0	0	0	0	537	509	0	1018	38	0	
9	0	0	0	0	533	508	0	1018	38	0	
10	0	0	0	0	515	508	0	1018	39	0	
11	0	0	0	0	505	508	0	1018	38	0	
12	0	0	0	0	503	507	0	1018	38	0	
13	0	0	0	0	505	507	0	1018	38	0	
14	0	0	0	0	497	506	0	1018	38	1	
15	0	0	0	0	517	505	0	1018	38	1	
0	0	0	0	0	520	505	0	1018	38	0	
1	0	0	0	0	510	505	0	1018	38	0	
2	0	0	0	0	500	504	0	1018	39	0	
3	0	0	0	0	498	505	0	1018	38	0	
4	0	0	0	0	508	505	0	1018	38	0	
5	0	0	0	0	523	504	0	1018	38	0	
6	0	0	0	0	518	503	0	1018	38	1	
7	0	0	0	0	503	502	0	1018	38	1	
8	0	0	0	0	507	502	0	1018	38	1	
9	0	0	0	0	497	502	0	1018	38	0	
10	0	0	0	0	486	502	0	1018	38	0	
11	0	0	0	0	501	503	0	1018	38	0	
12	0	0	0	0	562	506	0	1018	38	0	
13	0	0	0	0	561	508	0	1018	38	0	
14	0	0	0	0	536	509	0	1018	38	1	
15	0	0	0	0	497	508	0	1018	38	1	
0	0	0	0	0	444	507	0	1018	38	1	
1	0	0	0	0	404	508	0	1018	38	0	
2	0	0	0	0	475	508	0	1018	39	0	
3	0	0	0	0	499	508	0	1018	38	0	
4	0	0	0	0	527	508	0	1018	38	0	
5	0	0	0	0	526	508	0	1018	38	0	
6	0	0	0	0	528	507	0	1018	38	1	
7	0	0	0	0	536	507	0	1018	38	1	
8	0	0	0	0	534	507	0	1018	38	1	
9	0	0	0	0	524	505	0	1018	38	0	
10	0	0	0	0	524	508	0	1018	39	0	
11	0	0	0	0	525	511	0	1018	38	0	
12	0	0	0	0	500	509	0	1018	38	0	
13	0	0	0	0	489	509	0	1018	38	0	
14	0	0	0	0	511	507	0	1018	38	0	
15	0	0	0	0	493	507	0	1018	38	1	
0	0	0	0	0	499	505	0	1018	38	1	
1	0	0	0	0	557	506	0	1018	38	1	
2	0	0	0	0	558	508	0	1018	39	0	
3	0	0	0	0	557	508	0	1018	38	0	
4	0	0	0	0	530	509	0	1018	38	0	
5	0	0	0	0	502	508	0	1018	38	0	
6	0	0	0	0	480	510	0	1018	38	0	
7	0	0	0	0	433	511	0	1018	38	1	
8	0	0	0	0	440	509	0	1018	38	1	
9	0	0	0	0	460	511	0	1018	38	1	
10	0	0	0	0	508	510	0	1018	39	0	
11	0	0	0	0	510	511	0	1018	38	0	
12	0	0	0	0	495	510	0	1018	38	0	
13	0	0	0	0	489	509	0	1018	38	0	
14	0	0	0	0	500	509	0	1018	38	0	
15	0	0	0	0	536	508	0	1018	38	1	
0	0	0	0	0	539	508	0	1018	38	1	
1	0	0	0	0	519	508	0	525	38	1	
2	0	0	0	0	502	507	0	162	39	1	
3	0	0	0	0	507	507	0	0	38	0	
4	0	0	0	0	527	507	0	0	38	0	
5	0	0	0	0	510	510	0	0	38	0	
6	0	0	0	0	546	510	0	0	38	0	
7	0	0	0	0	580	509	0	0	38	1	
8	0	0	0	0	560	509	0	0	38	1	
9	0	0	0	0	540	508	0	0	38	1	
10	0	0	0	0	528	509	0	0	38	1	
11	0	0	0	0	503	508	0	0	38	0	
12	0	0	0	0	475	508	0	0	38	0	
13	0	0	0	0	458	509	0	0	38	0	
14	0	0	0	0	456	507	0	0	38	0	
15	0	0	0	0	477	507	0	0	38	1	
0	0	0	0	0	463	507	0	0	38	1	
1	0	0	0	0	497	506	0	0	38	1	
2	0	0	0	0	497	505	0	0	38	1	
3	0	0	0	0	492	505	0	0	38	1	
4	0	0	0	0	498	505	0	0	38	0	
5	0	0	0	0	515	506	0	0	38	0	
6	0	0	0	0	521	507	0	0	38	0	
7	0	0	0	0	526	507	0	0	38	0	
8	0	0	0	0	524	506	0	0	38	1	
9	0	0	0	0	528	506	0	0	38	1	
10	0	0	0	0	543	507	0	0	39	1	
11	0	0	0	0	551	506	0	0	38	1	
12	0	0	0	0	543	506	0	0	38	0	
13	0	0	0	0	534	506	0	0	38	0	
14	0	0	0	0	486	507	0	0	38	0	
15	0	0	0	0	483	505	0	0	38	0	
0	0	0	0	0	480	505	0	0	38	1	
1	0	0	0	0	448	506	0	0	38	1	
2	0	0	0	0	480	508	0	0	39	1	
3	0	0	0	0	516	509	0	0	38	1	
4	0	0	0	0	532	509	0	0	38	1	
5	0	0	0	0	532	510	0	0	38	0	
6	0	0	0	0	519	508	0	0	38	0	
7	0	0	0	0	512	507	0	0	38	0	
8	0	0	0	0	514	506	0	0	38	1	
9	0	0	0	0	516	505	0	0	38	1	
10	0	0	0	0	537	506	0	0	38	1	
11	0	0	0	0	571	508	0	0	38	1	
12	0	0	0	0	562	508	0	0	38	1	
13	0	0	0	0	532	510	0	0	38	0	
14	0	0	0	0	498	511	0	0	38	0	
15	0	0	0	0	472	511	0	0	38	0	
0	0	0	0	0	460	510	0	0	38	0	
1	0	0	0	0	431	510	0	0	38	1	
2	0	0	0	0	466	509	0	0	38	1	
3	0	0	0	0	493	509	0	0	38	1	
4	0	0	0	0	499	507	0	0	38	1	
5	0	0	0	0	483	505	0	0	38	0	
6	0	0	0	0	512	506	0	0	38	0	
7	0	0	0	0	525	507	0	0	38	0	
8	0	0	0	0	536	508	0	0	38	0	
9	0	0	0	0	531	507	0	0	38	1	
10	0	0	0	0	516	507	0	0	38	1	
11	0	0	0	0	506	507	0	0	38	1	
12	0	0	0	0	487	509	0	0	38	1	
13	0	0	0	0	482	509	0	0	38	1	
14	0	0	0	0	497	508	0	0	38	0	
15	0	0	0	0	545	510	0	0	38	0	
0	0	0	0	0	546	509	0	0	38	0	
1	0	0	0	0	523	510	0	0	38	1	
2	0	0	0	0	514	510	0	0	39	1	
3	0	0	0	0	529	509	0	0	38	1	
4	0	0	0	0	533	510	0	0	38	1	
5	0	0	0	0	509	509	0	0	38	1	
6	0	0	0	0	497	508	0	0	38	0	
7	0	0	0	0	472	508	0	0	38	0	
8	0	0	0	0	458	509	0	0	38	0	
9	0	0	0	0	485	511	0	0	38	0	
10	0	0	0	0	499	510	0	0	38	1	
11	0	0	0	0	510	507	0	0	38	1	
12	0	0	0	0	525	508	0	0	38	1	
13	0	0	0	0	537	509	0	0	38	1	
14	0	0	0	0	533	509	0	0	38	0	
15	0	0	0	0	527	509	0	0	38	0	
0	0	0	0	0	537	509	0	0	38	0	
1	0	0	0	0	534	508	0	0	38	0	
2	0	0	0	0	510	507	0	0	39	1	
3	0	0	0	0	488	507	0	0	38	1	
4	0	0	0	0	484	507	0	0	38	1	
5	0	0	0	0	493	508	0	0	38	1	
6	0	0	0	0	498	508	0	0	38	0	
7	0	0	0	0	507	507	0	0	38	0	
8	0	0	0	0	506	507	0	0	38	0	
9	0	0	0	0	496	507	0	0	38	0	
10	0	0	0	0	508	507	0	0	38	0	
11	0	0	0	0	551	507	0	0	38	1	
12	0	0	0	0	571	508	0	0	38	1	
13	0	0	0	0	553	508	0	0	38	1	
14	0	0	0	0	513	507	0	0	38	0	
15	0	0	0	0	487	507	0	0	38	0	
0	0	0	0	0	485	507	0	0	38	0	
1	0	0	0	0	434	507	0	0	38	0	
2	0	0	0	0	455	506	0	0	39	0	
3	0	0	0	0	489	507	0	0	38	1	
4	0	0	0	0	504	508	0	0	38	1	
5	0	0	0	0	518	507	0	0	38	1	
6	0	0	0	0	511	507	0	0	38	1	
7	0	0	0	0	513	507	0	0	38	0	
8	0	0	0	0	497	508	0	0	38	0	
9	0	0	0	0	503	508	0	0	38	0	
10	0	0	0	0	538	509	0	0	39	0	
11	0	0	0	0	553	509	0	0	38	0	
12	0	0	0	0	526	509	0	0	38	1	
13	0	0	0	0	479	509	0	0	38	1	
14	0	0	0	0	483	509	0	0	38	1	
15	0	0	0	0	495	510	0	0	38	0	
0	0	0	0	0	499	510	0	0	38	0	
1	0	0	0	0	508	511	0	0	38	0	
2	0	0	0	0	524	509	0	0	39	0	
3	0	0	0	0	525	508	0	0	38	0	
4	0	0	0	0	518	508	0	0	38	1	
5	0	0	0	0	512	508	0	0	38	1	
6	0	0	0	0	505	509	0	0	38	1	
7	0	0	0	0	505	509	0	0	38	0	
8	0	0	0	0	511	507	0	0	38	0	
9	0	0	0	0	526	508	0	0	38	0	
10	0	0	0	0	543	508	0	0	39	0	
11	0	0	0	0	534	508	0	0	38	0	
12	0	0	0	0	520	509	0	0	38	0	
13	0	0	0	0	493	508	0	0	38	1	
14	0	0	0	0	477	508	0	0	38	1	
15	0	0	0	0	447	508	0	0	38	1	
0	0	0	0	0	504	507	0	0	38	0	
1	0	0	0	0	526	508	0	0	38	0	
2	0	0	0	0	525	509	0	0	38	0	
3	0	0	0	0	527	509	0	0	38	0	
4	0	0	0	0	522	509	0	0	38	0	
5	0	0	0	0	524	509	0	0	38	1	
6	0	0	0	0	537	508	0	0	38	1	
7	0	0	0	0	534	508	0	0	38	1	
8	0	0	0	0	513	507	0	0	38	0	
9	0	0	0	0	491	506	0	368	38	0	
10	0	0	0	0	487	506	0	774	39	0	
11	0	0	0	0	462	507	0	1018	38	0	
12	0	0	0	0	460	508	0	1018	38	0	
13	0	0	0	0	492	508	0	1018	38	1	
14	0	0	0	0	516	508	0	1018	38	1	
15	0	0	0	0	524	508	0	1018	38	1	
0	0	0	0	0	530	508	0	1018	38	0	
1	0	0	0	0	526	508	0	1018	38	0	
2	0	0	0	0	508	507	0	1018	39	0	
3	0	0	0	0	499	506	0	1018	38	0	
4	0	0	0	0	519	506	0	1018	38	0	
5	0	0	0	0	521	507	0	1018	38	0	
6	0	0	0	0	508	509	0	1018	38	1	
7	0	0	0	0	506	508	0	1018	38	1	
8	0	0	0	0	502	507	0	1018	38	0	
9	0	0	0	0	498	508	0	1017	38	0	
10	0	0	0	0	542	508	0	916	39	0	
11	0	0	0	0	546	508	0	881	38	0	
12	0	0	0	0	519	508	0	848	38	0	
13	0	0	0	0	476	509	0	795	38	0	
14	0	0	0	0	467	508	0	687	38	1	
15	0	0	0	0	513	507	0	516	38	1	
0	0	0	0	0	511	508	0	315	38	1	
1	0	0	0	0	500	507	0	61	38	0	
2	0	0	0	0	514	506	0	0	39	0	
3	0	0	0	0	509	505	0	0	38	0	
4	0	0	0	0	493	507	0	0	38	0	
5	0	0	0	0	484	508	0	0	38	0	
6	0	0	0	0	516	508	0	0	38	1	
7	0	0	0	0	521	509	0	0	38	1	
8	0	0	0	0	489	510	0	0	38	1	
9	0	0	0	0	497	510	0	0	38	1	
10	0	0	0	0	502	510	0	0	38	0	
11	0	0	0	0	501	509	0	0	38	0	
12	0	0	0	0	524	509	0	0	38	0	
13	0	0	0	0	538	507	0	0	38	0	
14	0	0	0	0	538	506	0	0	38	0	
15	0	0	0	0	526	507	0	0	38	1	
0	0	0	0	0	534	507	0	0	38	1	
1	0	0	0	0	539	507	0	0	38	0	
2	0	0	0	0	497	507	0	0	38	0	
3	0	0	0	0	499	505	0	0	38	0	
4	0	0	0	0	536	505	0	0	38	0	
5	0	0	0	0	511	506	0	0	38	0	
6	0	0	0	0	477	504	0	0	38	0	
7	0	0	0	0	473	504	0	0	38	1	
8	0	0	0	0	495	504	0	0	38	1	
9	0	0	0	0	479	504	0	0	38	1	
10	0	0	0	0	528	504	0	0	39	0	
11	0	0	0	0	525	506	0	0	38	0	
12	0	0	0	0	504	505	0	0	38	0	
13	0	0	0	0	502	505	0	0	38	0	
14	0	0	0	0	475	507	0	0	38	0	
15	0	0	0	0	492	508	0	0	38	1	
0	0	0	0	0	507	507	0	0	38	1	
1	0	0	0	0	502	508	0	0	38	1	
2	0	0	0	0	503	506	0	0	39	0	
3	0	0	0	0	516	505	0	0	38	0	
4	0	0	0	0	513	507	0	0	38	0	
5	0	0	0	0	508	505	0	0	38	0	
6	0	0	0	0	507	505	0	0	38	0	
7	0	0	0	0	511	506	0	0	38	0	
8	0	0	0	0	502	506	0	0	38	1	
9	0	0	0	0	544	507	0	0	38	1	
10	0	0	0	0	537	507	0	0	39	1	
11	0	0	0	0	531	509	0	0	38	0	
12	0	0	0	0	536	510	0	0	38	0	
13	0	0	0	0	519	511	0	0	38	0	
14	0	0	0	0	509	508	0	0	38	0	
15	0	0	0	0	501	508	0	0	38	0	
0	0	0	0	0	486	506	0	0	38	1	
1	0	0	0	0	497	505	0	0	38	1	
2	0	0	0	0	519	506	0	0	38	1	
3	0	0	0	0	554	506	0	0	38	1	
4	0	0	0	0	569	505	0	0	38	0	
5	0	0	0	0	551	504	0	0	38	0	
6	0	0	0	0	515	505	0	0	38	0	
7	0	0	0	0	471	507	0	0	38	0	
8	0	0	0	0	455	508	0	0	38	1	
9	0	0	0	0	443	506	0	0	38	1	
10	0	0	0	0	432	507	0	0	38	1	
11	0	0	0	0	490	507	0	0	38	1	
12	0	0	0	0	517	508	0	0	38	0	
13	0	0	0	0	524	509	0	0	38	0	
14	0	0	0	0	521	507	0	0	38	0	
15	0	0	0	0	508	506	0	0	38	0	
0	0	0	0	0	518	507	0	0	38	1	
1	0	0	0	0	511	509	0	0	38	1	
2	0	0	0	0	520	509	0	0	38	1	
3	0	0	0	0	527	508	0	0	38	1	
4	0	0	0	0	527	508	0	0	38	0	
5	0	0	0	0	536	507	0	0	38	0	
6	0	0	0	0	522	507	0	0	38	0	
7	0	0	0	0	487	506	0	0	38	0	
8	0	0	0	0	472	506	0	0	38	1	
9	0	0	0	0	447	505	0	0	38	1	
10	0	0	0	0	501	505	0	0	39	1	
11	0	0	0	0	541	506	0	0	38	1	
12	0	0	0	0	559	506	0	0	38	1	
13	0	0	0	0	521	506	0	298	38	0	
14	0	0	0	0	515	506	0	708	38	0	
15	0	0	0	0	487	508	0	1018	38	0	
0	0	0	0	0	464	508	0	1018	38	0	
1	0	0	0	0	467	508	0	1018	38	1	
2	0	0	0	0	542	508	0	1018	39	1	
3	0	0	0	0	540	508	0	1018	38	1	
4	0	0	0	0	538	510	0	1018	38	1	
5	0	0	0	0	535	509	0	1018	38	0	
6	0	0	0	0	530	509	0	1018	38	0	
7	0	0	0	0	512	508	0	1018	38	0	
8	0	0	0	0	471	509	0	1018	38	0	
9	0	0	0	0	474	509	0	1017	38	1	
10	0	0	0	0	487	508	0	1018	38	1	
11	0	0	0	0	496	508	0	1018	38	1	
12	0	0	0	0	511	507	0	1018	38	1	
13	0	0	0	0	511	507	0	1018	38	0	
14	0	0	0	0	507	507	0	1018	38	0	
15	0	0	0	0	505	505	0	1018	38	0	
0	0	0	0	0	505	505	0	1018	38	0	
1	0	0	0	0	513	506	0	1018	38	1	
2	0	0	0	0	557	504	0	1018	38	1	
3	0	0	0	0	561	504	0	1018	38	1	
4	0	0	0	0	555	507	0	1018	38	1	
5	0	0	0	0	536	506	0	1018	38	1	
6	0	0	0	0	509	506	0	1018	38	0	
7	0	0	0	0	492	506	0	1018	38	0	
8	0	0	0	0	480	507	0	1018	38	0	
9	0	0	0	0	447	506	0	1018	38	1	
10	0	0	0	0	482	506	0	1018	39	1	
11	0	0	0	0	509	508	0	1018	38	1	
12	0	0	0	0	501	507	0	1018	38	1	
13	0	0	0	0	487	506	0	1018	38	1	
14	0	0	0	0	485	506	0	1018	38	0	
15	0	0	0	0	510	507	0	1018	38	0	
0	0	0	0	0	538	505	0	1018	38	0	
1	0	0	0	0	563	506	0	1018	38	0	
2	0	0	0	0	568	507	0	1018	39	1	
3	0	0	0	0	537	509	0	1018	38	1	
4	0	0	0	0	529	508	0	1018	38	1	
5	0	0	0	0	509	507	0	1018	38	1	
6	0	0	0	0	495	506	0	1018	38	0	
7	0	0	0	0	479	507	0	1018	38	0	
8	0	0	0	0	425	509	0	1018	38	0	
9	0	0	0	0	444	509	0	1018	38	0	
10	0	0	0	0	461	508	0	1018	38	1	
11	0	0	0	0	466	507	0	1018	38	1	
12	0	0	0	0	507	507	0	1018	38	1	
13	0	0	0	0	531	507	0	1018	38	1	
14	0	0	0	0	554	506	0	1018	38	1	
15	0	0	0	0	563	505	0	1018	38	0	
0	0	0	0	0	552	505	0	1018	38	0	
1	0	0	0	0	522	505	0	1018	38	0	
2	0	0	0	0	508	507	0	1018	39	0	
3	0	0	0	0	508	508	0	1018	38	1	
4	0	0	0	0	527	509	0	1018	38	1	
5	0	0	0	0	528	508	0	1018	38	1	
6	0	0	0	0	537	509	0	1018	38	1	
7	0	0	0	0	511	509	0	1018	38	0	
8	0	0	0	0	477	509	0	1018	38	0	
9	0	0	0	0	443	507	0	1018	38	0	
10	0	0	0	0	464	504	0	1018	39	0	
11	0	0	0	0	495	508	0	1018	38	0	
12	0	0	0	0	498	509	0	1018	38	1	
13	0	0	0	0	512	508	0	1018	38	1	
14	0	0	0	0	498	508	0	1018	38	1	
15	0	0	0	0	517	508	0	1018	38	0	
0	0	0	0	0	528	509	0	1018	38	0	
1	0	0	0	0	523	508	0	1018	38	0	
2	0	0	0	0	519	507	0	1018	39	0	
3	0	0	0	0	508	506	0	1018	38	0	
4	0	0	0	0	499	507	0	1018	38	1	
5	0	0	0	0	514	507	0	1018	38	1	
6	0	0	0	0	513	508	0	1018	38	1	
7	0	0	0	0	525	508	0	1018	38	1	
8	0	0	0	0	540	508	0	1018	38	0	
9	0	0	0	0	556	506	0	1018	38	0	
10	0	0	0	0	547	505	0	1018	39	0	
11	0	0	0	0	542	506	0	1018	38	1	
12	0	0	0	0	514	506	0	1018	38	1	
13	0	0	0	0	457	507	0	1018	38	1	
14	0	0	0	0	442	507	0	1018	38	1	
15	0	0	0	0	460	508	0	1018	38	1	
0	0	0	0	0	496	508	0	1018	38	0	
1	0	0	0	0	508	508	0	1018	38	0	
2	0	0	0	0	511	508	0	1018	39	0	
3	0	0	0	0	515	508	0	1018	38	0	
4	0	0	0	0	520	505	0	1018	38	0	
5	0	0	0	0	531	505	0	1018	38	1	
6	0	0	0	0	552	507	0	1018	38	1	
7	0	0	0	0	584	507	0	1018	38	1	
8	0	0	0	0	575	508	0	1018	38	0	
9	0	0	0	0	548	509	0	521	38	0	
10	0	0	0	0	512	510	0	134	39	0	
11	0	0	0	0	454	509	0	0	38	0	
12	0	0	0	0	359	509	0	0	38	0	
13	0	0	0	0	366	508	0	0	38	1	
14	0	0	0	0	467	507	0	0	38	1	
15	0	0	0	0	521	505	0	0	38	1	
0	0	0	0	0	550	505	0	0	38	1	
1	0	0	0	0	540	505	0	0	38	0	
2	0	0	0	0	533	505	0	0	38	0	
3	0	0	0	0	528	507	0	0	38	0	
4	0	0	0	0	519	506	0	0	38	0	
5	0	0	0	0	533	507	0	0	38	1	
6	0	0	0	0	540	505	0	0	38	1	
7	0	0	0	0	548	508	0	0	38	1	
8	0	0	0	0	547	511	0	0	38	0	
9	0	0	0	0	532	510	0	0	38	0	
10	0	0	0	0	489	510	0	0	39	0	
11	0	0	0	0	442	509	0	357	38	0	
12	0	0	0	0	440	511	0	705	38	0	
13	0	0	0	0	463	510	0	1017	38	0	
14	0	0	0	0	488	508	0	1018	38	1	
15	0	0	0	0	512	508	0	1018	38	1	
0	0	0	0	0	538	507	0	1018	38	1	
1	0	0	0	0	553	507	0	1018	38	0	
2	0	0	0	0	573	507	0	1018	39	0	
3	0	0	0	0	529	507	0	1018	38	0	
4	0	0	0	0	508	508	0	1018	38	0	
5	0	0	0	0	519	506	0	1018	38	0	
6	0	0	0	0	543	506	0	1018	38	1	
7	0	0	0	0	536	506	0	1018	38	1	
8	0	0	0	0	488	506	0	1018	38	1	
9	0	0	0	0	447	507	0	1018	38	0	
10	0	0	0	0	439	504	0	1018	38	0	
11	0	0	0	0	449	507	0	1018	38	0	
12	0	0	0	0	472	508	0	1018	38	0	
13	0	0	0	0	523	507	0	1018	38	0	
14	0	0	0	0	552	507	0	1018	38	1	
15	0	0	0	0	535	506	0	1018	38	1	
0	0	0	0	0	523	508	0	1018	38	1	
1	0	0	0	0	546	507	0	1018	38	0	
2	0	0	0	0	545	506	0	1018	38	0	
3	0	0	0	0	519	505	0	1018	38	0	
4	0	0	0	0	490	505	0	1018	38	0	
5	0	0	0	0	458	507	0	1018	38	0	
6	0	0	0	0	459	506	0	1018	38	0	
7	0	0	0	0	504	507	0	1018	38	1	
8	0	0	0	0	512	506	0	1018	38	1	
9	0	0	0	0	539	505	0	1018	38	1	
10	0	0	0	0	540	505	0	1018	38	0	
11	0	0	0	0	531	505	0	1018	38	0	
12	0	0	0	0	518	505	0	1018	38	0	
13	0	0	0	0	504	505	0	1018	38	0	
14	0	0	0	0	512	505	0	1018	38	0	
15	0	0	0	0	529	504	0	1018	38	1	
0	0	0	0	0	524	505	0	1018	38	1	
1	0	0	0	0	499	507	0	1018	38	1	
2	0	0	0	0	499	508	0	1018	39	0	
3	0	0	0	0	485	508	0	1018	38	0	
4	0	0	0	0	470	506	0	1018	38	0	
5	0	0	0	0	481	505	0	1018	38	0	
6	0	0	0	0	506	504	0	1018	38	0	
7	0	0	0	0	500	504	0	1018	38	1	
8	0	0	0	0	486	503	0	1018	38	1	
9	0	0	0	0	473	505	0	1018	38	1	
10	0	0	0	0	500	506	0	1017	38	1	
11	0	0	0	0	528	508	0	1018	38	0	
12	0	0	0	0	545	509	0	1018	38	0	
13	0	0	0	0	537	508	0	1018	38	0	
14	0	0	0	0	526	508	0	1018	38	0	
15	0	0	0	0	495	508	0	1018	38	0	
0	0	0	0	0	481	507	0	1018	38	1	
1	0	0	0	0	487	507	0	1018	38	1	
2	0	0	0	0	476	507	0	1018	39	1	
3	0	0	0	0	496	507	0	1018	38	0	
4	0	0	0	0	539	507	0	1018	38	0	
5	0	0	0	0	567	507	0	1018	38	0	
6	0	0	0	0	569	507	0	1018	38	0	
7	0	0	0	0	652	509	0	1018	38	0	
8	0	0	0	0	675	507	0	1018	38	1	
9	0	0	0	0	600	508	0	1018	38	1	
10	0	0	0	0	495	507	0	1018	38	1	
11	0	0	0	0	386	508	0	1018	38	1	
12	0	0	0	0	327	508	0	1018	38	0	
13	0	0	0	0	371	508	0	1018	38	0	
14	0	0	0	0	526	508	0	1018	38	0	
15	0	0	0	0	574	508	0	1017	38	0	
0	0	0	0	0	610	508	0	705	38	1	
1	0	0	0	0	587	508	0	620	38	1	
2	0	0	0	0	527	508	0	589	39	1	
3	0	0	0	0	428	509	0	472	38	1	
4	0	0	0	0	376	511	0	307	38	0	
5	0	0	0	0	425	511	0	63	38	0	
6	0	0	0	0	447	508	0	0	38	0	
7	0	0	0	0	460	509	0	0	38	0	
8	0	0	0	0	492	511	0	0	38	1	
9	0	0	0	0	510	510	0	0	38	1	
10	0	0	0	0	531	509	0	0	39	1	
11	0	0	0	0	542	510	0	0	38	1	
12	0	0	0	0	494	510	0	0	38	0	
13	0	0	0	0	528	511	0	0	38	0	
14	0	0	0	0	590	510	0	0	38	0	
15	0	0	0	0	586	511	0	0	38	0	
0	0	0	0	0	559	508	0	0	38	0	
1	0	0	0	0	526	508	0	0	38	1	
2	0	0	0	0	483	508	0	0	38	1	
3	0	0	0	0	481	510	0	0	38	1	
4	0	0	0	0	500	511	0	0	38	1	
5	0	0	0	0	519	509	0	0	38	0	
6	0	0	0	0	560	508	0	0	38	0	
7	0	0	0	0	582	509	0	0	38	0	
8	0	0	0	0	540	509	0	0	38	0	
9	0	0	0	0	544	509	0	0	38	1	
10	0	0	0	0	566	508	0	0	38	1	
11	0	0	0	0	524	509	0	0	38	1	
12	0	0	0	0	476	508	0	0	38	1	
13	0	0	0	0	388	510	0	0	38	0	
14	0	0	0	0	364	511	0	0	38	0	
15	0	0	0	0	371	512	0	0	38	0	
0	0	0	0	0	376	511	0	0	38	0	
1	0	0	0	0	457	510	0	0	38	0	
2	0	0	0	0	505	510	0	0	39	1	
3	0	0	0	0	551	512	0	0	38	1	
4	0	0	0	0	550	510	0	0	38	1	
5	0	0	0	0	527	507	0	0	38	0	
6	0	0	0	0	519	506	0	0	38	0	
7	0	0	0	0	535	505	0	0	38	0	
8	0	0	0	0	551	507	0	0	38	0	
9	0	0	0	0	556	509	0	0	38	1	
10	0	0	0	0	548	510	0	0	39	1	
11	0	0	0	0	544	508	0	0	38	1	
12	0	0	0	0	534	508	0	0	38	1	
13	0	0	0	0	519	508	0	142	38	1	
14	0	0	0	0	514	506	0	255	38	0	
15	0	0	0	0	512	507	0	275	38	0	
0	0	0	0	0	520	504	0	381	38	0	
1	0	0	0	0	507	505	0	405	38	0	
2	0	0	0	0	504	507	0	551	39	1	
3	0	0	0	0	505	506	0	811	38	1	
4	0	0	0	0	512	508	0	1018	38	1	
5	0	0	0	0	527	508	0	1018	38	1	
6	0	0	0	0	512	509	0	1018	38	0	
7	0	0	0	0	515	509	0	1018	38	0	
8	0	0	0	0	518	507	0	1018	38	0	
9	0	0	0	0	502	506	0	1018	38	0	
10	0	0	0	0	496	505	0	1018	39	1	
11	0	0	0	0	492	507	0	1018	38	1	
12	0	0	0	0	496	507	0	1018	38	1	
13	0	0	0	0	508	508	0	1018	38	1	
14	0	0	0	0	521	506	0	1018	38	1	
15	0	0	0	0	506	508	0	1018	38	0	
0	0	0	0	0	471	510	0	1018	38	0	
1	0	0	0	0	450	510	0	1018	38	0	
2	0	0	0	0	465	510	0	1018	38	1	
3	0	0	0	0	503	511	0	1018	38	1	
4	0	0	0	0	537	512	0	1018	38	1	
5	0	0	0	0	546	511	0	1018	38	1	
6	0	0	0	0	541	510	0	1018	38	1	
7	0	0	0	0	536	509	0	1018	38	0	
8	0	0	0	0	539	509	0	1018	38	0	
9	0	0	0	0	551	509	0	1017	38	0	
10	0	0	0	0	552	509	0	1018	38	0	
11	0	0	0	0	568	510	0	1018	38	1	
12	0	0	0	0	536	511	0	1018	38	1	
13	0	0	0	0	518	510	0	1018	38	1	
14	0	0	0	0	481	510	0	1018	38	1	
15	0	0	0	0	406	509	0	1018	38	0	
0	0	0	0	0	409	509	0	1018	38	0	
1	0	0	0	0	488	508	0	1018	38	0	
2	0	0	0	0	496	507	0	1018	38	0	
3	0	0	0	0	497	506	0	1018	38	1	
4	0	0	0	0	519	507	0	1018	38	1	
5	0	0	0	0	527	508	0	1018	38	1	
6	0	0	0	0	495	509	0	1018	38	1	
7	0	0	0	0	447	510	0	1018	38	0	
8	0	0	0	0	493	509	0	1018	38	0	
9	0	0	0	0	597	509	0	1018	38	0	
10	0	0	0	0	592	509	0	1018	39	0	
11	0	0	0	0	583	508	0	1018	38	0	
12	0	0	0	0	558	510	0	1018	38	1	
13	0	0	0	0	517	510	0	1018	38	1	
14	0	0	0	0	462	509	0	1018	38	1	
15	0	0	0	0	428	508	0	1018	38	1	
0	0	0	0	0	428	507	0	1018	38	0	
1	0	0	0	0	477	508	0	1018	38	0	
2	0	0	0	0	484	508	0	859	39	0	
3	0	0	0	0	476	508	0	412	38	0	
4	0	0	0	0	499	508	0	47	38	1	
5	0	0	0	0	497	508	0	0	38	1	
6	0	0	0	0	551	507	0	0	38	1	
7	0	0	0	0	569	508	0	0	38	1	
8	0	0	0	0	566	508	0	0	38	0	
9	0	0	0	0	554	508	0	0	38	0	
10	0	0	0	0	535	509	0	0	39	0	
11	0	0	0	0	496	511	0	0	38	0	
12	0	0	0	0	438	510	0	0	38	0	
13	0	0	0	0	460	511	0	0	38	1	
14	0	0	0	0	471	510	0	0	38	1	
15	0	0	0	0	529	511	0	183	38	1	
0	0	0	0	0	558	511	0	402	38	0	
1	0	0	0	0	539	512	0	523	38	0	
2	0	0	0	0	513	512	0	575	39	0	
3	0	0	0	0	523	511	0	523	38	0	
4	0	0	0	0	516	509	0	465	38	0	
5	0	0	0	0	478	509	0	449	38	1	
6	0	0	0	0	482	511	0	515	38	1	
7	0	0	0	0	489	512	0	608	38	1	
8	0	0	0	0	501	511	0	762	38	1	
9	0	0	0	0	532	509	0	784	38	0	
10	0	0	0	0	549	510	0	703	38	0	
11	0	0	0	0	549	510	0	585	38	0	
12	0	0	0	0	545	510	0	612	38	0	
13	0	0	0	0	545	510	0	599	38	1	
14	0	0	0	0	471	509	0	519	38	1	
15	0	0	0	0	467	509	0	304	38	1	
0	0	0	0	0	437	509	0	38	38	1	
1	0	0	0	0	450	510	0	0	38	0	
2	0	0	0	0	463	510	0	0	39	0	
3	0	0	0	0	473	507	0	0	38	0	
4	0	0	0	0	512	507	0	0	38	0	
5	0	0	0	0	524	506	0	0	38	0	
6	0	0	0	0	521	507	0	0	38	1	
7	0	0	0	0	546	508	0	0	38	1	
8	0	0	0	0	546	509	0	0	38	1	
9	0	0	0	0	530	508	0	0	38	0	
10	0	0	0	0	529	507	0	0	38	0	
11	0	0	0	0	528	507	0	0	38	0	
12	0	0	0	0	505	508	0	0	38	0	
13	0	0	0	0	528	508	0	0	38	0	
14	0	0	0	0	530	507	0	0	38	1	
15	0	0	0	0	496	508	0	0	38	1	
0	0	0	0	0	492	508	0	0	38	1	
1	0	0	0	0	498	507	0	0	38	0	
2	0	0	0	0	496	509	0	0	39	0	
3	0	0	0	0	513	507	0	0	38	0	
4	0	0	0	0	530	506	0	0	38	0	
5	0	0	0	0	528	505	0	0	38	0	
6	0	0	0	0	522	504	0	0	38	1	
7	0	0	0	0	525	504	0	0	38	1	
8	0	0	0	0	525	503	0	0	38	1	
9	0	0	0	0	497	504	0	0	38	1	
10	0	0	0	0	505	504	0	0	39	0	
11	0	0	0	0	474	505	0	0	38	0	
12	0	0	0	0	501	506	0	0	38	0	
13	0	0	0	0	484	507	0	0	38	0	
14	0	0	0	0	468	506	0	0	38	0	
15	0	0	0	0	478	508	0	0	38	1	
0	0	0	0	0	455	509	0	0	38	1	
1	0	0	0	0	465	511	0	0	38	1	
2	0	0	0	0	536	512	0	0	39	0	
3	0	0	0	0	570	511	0	0	38	0	
4	0	0	0	0	570	510	0	0	38	0	
5	0	0	0	0	548	510	0	0	38	0	
6	0	0	0	0	526	508	0	0	38	0	
7	0	0	0	0	500	506	0	0	38	0	
8	0	0	0	0	489	506	0	0	38	1	
9	0	0	0	0	488	507	0	0	38	1	
10	0	0	0	0	477	507	0	0	39	0	
11	0	0	0	0	494	507	0	0	38	0	
12	0	0	0	0	517	508	0	0	38	0	
13	0	0	0	0	510	506	0	0	38	0	
14	0	0	0	0	503	506	0	0	38	0	
15	0	0	0	0	513	506	0	583	38	0	
0	0	0	0	0	536	507	0	1017	38	1	
1	0	0	0	0	564	508	0	1018	38	1	
2	0	0	0	0	555	508	0	1018	39	0	
3	0	0	0	0	513	508	0	1018	38	0	
4	0	0	0	0	471	508	0	1018	38	0	
5	0	0	0	0	457	508	0	1018	38	0	
6	0	0	0	0	461	508	0	1018	38	0	
7	0	0	0	0	497	508	0	1018	38	0	
8	0	0	0	0	519	508	0	1018	38	0	
9	0	0	0	0	498	508	0	1018	38	1	
10	0	0	0	0	493	508	0	1018	39	1	
11	0	0	0	0	516	509	0	1018	38	0	
12	0	0	0	0	538	509	0	1018	38	0	
13	0	0	0	0	565	509	0	1018	38	0	
14	0	0	0	0	570	509	0	1018	38	0	
15	0	0	0	0	537	508	0	1018	38	0	
0	0	0	0	0	504	508	0	1018	38	0	
1	0	0	0	0	511	509	0	1018	38	1	
2	0	0	0	0	520	509	0	1018	38	1	
3	0	0	0	0	517	510	0	1018	38	0	
4	0	0	0	0	546	510	0	1018	38	0	
5	0	0	0	0	555	509	0	1018	38	0	
6	0	0	0	0	519	509	0	1018	38	0	
7	0	0	0	0	524	508	0	1018	38	0	
8	0	0	0	0	471	508	0	1018	38	1	
9	0	0	0	0	413	506	0	1018	38	1	
10	0	0	0	0	405	507	0	1018	39	1	
11	0	0	0	0	449	508	0	1018	38	1	
12	0	0	0	0	487	508	0	1018	38	0	
13	0	0	0	0	483	508	0	1018	38	0	
14	0	0	0	0	490	507	0	1018	38	0	
15	0	0	0	0	448	508	0	1018	38	0	
0	0	0	0	0	461	506	0	1018	38	1	
1	0	0	0	0	501	508	0	1018	38	1	
2	0	0	0	0	537	510	0	1018	39	1	
3	0	0	0	0	561	508	0	1018	38	1	
4	0	0	0	0	555	509	0	1018	38	0	
5	0	0	0	0	559	509	0	1018	38	0	
6	0	0	0	0	559	508	0	1018	38	0	
7	0	0	0	0	561	509	0	1018	38	0	
8	0	0	0	0	560	508	0	1018	38	0	
9	0	0	0	0	559	508	0	1018	38	1	
10	0	0	0	0	532	508	0	1018	38	1	
11	0	0	0	0	507	508	0	1018	38	1	
12	0	0	0	0	484	508	0	1018	38	1	
13	0	0	0	0	427	509	0	1018	38	0	
14	0	0	0	0	416	508	0	1018	38	0	
15	0	0	0	0	478	508	0	1018	38	0	
0	0	0	0	0	510	507	0	1018	38	0	
1	0	0	0	0	529	508	0	1018	38	1	
2	0	0	0	0	524	506	0	1018	38	1	
3	0	0	0	0	504	508	0	1018	38	1	
4	0	0	0	0	495	506	0	1018	38	1	
5	0	0	0	0	511	506	0	1018	38	0	
6	0	0	0	0	560	506	0	1018	38	0	
7	0	0	0	0	559	505	0	1018	38	0	
8	0	0	0	0	537	505	0	1018	38	0	
9	0	0	0	0	519	506	0	1017	38	1	
10	0	0	0	0	508	508	0	1018	39	1	
11	0	0	0	0	516	509	0	1018	38	1	
12	0	0	0	0	502	508	0	1018	38	1	
13	0	0	0	0	490	506	0	1018	38	0	
14	0	0	0	0	487	505	0	1018	38	0	
15	0	0	0	0	492	506	0	1018	38	0	
0	0	0	0	0	496	505	0	1018	38	0	
1	0	0	0	0	510	505	0	1018	38	0	
2	0	0	0	0	492	507	0	1018	38	1	
3	0	0	0	0	500	509	0	1018	38	1	
4	0	0	0	0	520	508	0	582	38	1	
5	0	0	0	0	518	506	0	231	38	1	
6	0	0	0	0	530	505	0	3	38	0	
7	0	0	0	0	535	502	0	0	38	0	
8	0	0	0	0	544	504	0	0	38	0	
9	0	0	0	0	529	505	0	0	38	0	
10	0	0	0	0	502	505	0	0	39	1	
11	0	0	0	0	430	503	0	0	38	1	
12	0	0	0	0	409	505	0	0	38	1	
13	0	0	0	0	454	507	0	0	38	1	
14	0	0	0	0	460	506	0	0	38	1	
15	0	0	0	0	514	507	0	0	38	0	
0	0	0	0	0	556	507	0	0	38	0	
1	0	0	0	0	553	509	0	0	38	0	
2	0	0	0	0	522	510	0	0	39	0	
3	0	0	0	0	545	510	0	444	38	1	
4	0	0	0	0	539	510	0	648	38	1	
5	0	0	0	0	521	509	0	881	38	1	
6	0	0	0	0	541	507	0	1018	38	1	
7	0	0	0	0	529	509	0	1018	38	0	
8	0	0	0	0	494	508	0	1018	38	0	
9	0	0	0	0	479	509	0	1018	38	0	
10	0	0	0	0	518	508	0	1018	39	0	
11	0	0	0	0	579	509	0	1018	38	1	
12	0	0	0	0	576	508	0	1018	38	1	
13	0	0	0	0	542	508	0	1018	38	1	
14	0	0	0	0	517	509	0	1018	38	1	
15	0	0	0	0	471	509	0	1018	38	0	
0	0	0	0	0	435	508	0	1018	38	0	
1	0	0	0	0	427	509	0	1018	38	0	
2	0	0	0	0	471	511	0	1018	38	0	
3	0	0	0	0	498	509	0	1018	38	1	
4	0	0	0	0	514	509	0	1018	38	1	
5	0	0	0	0	527	510	0	1018	38	1	
6	0	0	0	0	511	510	0	1018	38	1	
7	0	0	0	0	488	510	0	1018	38	0	
8	0	0	0	0	512	510	0	1018	38	0	
9	0	0	0	0	532	511	0	1018	38	0	
10	0	0	0	0	522	510	0	1018	38	0	
11	0	0	0	0	501	510	0	1018	38	1	
12	0	0	0	0	497	510	0	1018	38	1	
13	0	0	0	0	505	509	0	1018	38	1	
14	0	0	0	0	514	507	0	1018	38	1	
15	0	0	0	0	515	505	0	1018	38	1	
0	0	0	0	0	477	504	0	1018	38	0	
1	0	0	0	0	456	506	0	1018	38	0	
2	0	0	0	0	483	506	0	1018	39	0	
3	0	0	0	0	539	506	0	1018	38	1	
4	0	0	0	0	541	506	0	1018	38	1	
5	0	0	0	0	546	506	0	1018	38	1	
6	0	0	0	0	534	505	0	1018	38	1	
7	0	0	0	0	515	506	0	1018	38	1	
8	0	0	0	0	520	507	0	1018	38	0	
9	0	0	0	0	521	507	0	1018	38	0	
10	0	0	0	0	526	505	0	1018	38	0	
11	0	0	0	0	526	504	0	1018	38	0	
12	0	0	0	0	539	505	0	1018	38	1	
13	0	0	0	0	528	506	0	1018	38	1	
14	0	0	0	0	498	505	0	1018	38	1	
15	0	0	0	0	477	506	0	1018	38	1	
0	0	0	0	0	494	505	0	1018	38	1	
1	0	0	0	0	487	506	0	1018	38	0	
2	0	0	0	0	499	507	0	1018	39	0	
3	0	0	0	0	532	506	0	1018	38	0	
4	0	0	0	0	529	508	0	1018	38	0	
5	0	0	0	0	518	509	0	1018	38	1	
6	0	0	0	0	496	508	0	1018	38	1	
7	0	0	0	0	494	508	0	1018	38	1	
8	0	0	0	0	476	508	0	1018	38	1	
9	0	0	0	0	510	508	0	1017	38	0	
10	0	0	0	0	532	507	0	1018	38	0	
11	0	0	0	0	540	507	0	1018	38	0	
12	0	0	0	0	488	505	0	1018	38	0	
13	0	0	0	0	500	506	0	1018	38	1	
14	0	0	0	0	497	507	0	1018	38	1	
15	0	0	0	0	446	507	0	1018	38	1	
0	0	0	0	0	470	507	0	1018	38	1	
1	0	0	0	0	511	506	0	1018	38	0	
2	0	0	0	0	525	505	0	1018	39	0	
3	0	0	0	0	518	506	0	1018	38	0	
4	0	0	0	0	512	504	0	1018	38	0	
5	0	0	0	0	516	504	0	1018	38	1	
6	0	0	0	0	527	505	0	1018	38	1	
7	0	0	0	0	530	505	0	1018	38	1	
8	0	0	0	0	539	506	0	1018	38	1	
9	0	0	0	0	540	508	0	1018	38	0	
10	0	0	0	0	537	507	0	1018	39	0	
11	0	0	0	0	527	508	0	1018	38	0	
12	0	0	0	0	517	507	0	1018	38	0	
13	0	0	0	0	483	508	0	1018	38	0	
14	0	0	0	0	433	510	0	1018	38	1	
15	0	0	0	0	463	509	0	1018	38	1	
0	0	0	0	0	511	507	0	1018	38	1	
1	0	0	0	0	505	508	0	1018	38	1	
2	0	0	0	0	500	509	0	1018	39	0	
3	0	0	0	0	511	510	0	1018	38	0	
4	0	0	0	0	503	509	0	1018	38	0	
5	0	0	0	0	478	509	0	1018	38	0	
6	0	0	0	0	496	510	0	1017	38	1	
7	0	0	0	0	547	510	0	603	38	1	
8	0	0	0	0	540	511	0	292	38	1	
9	0	0	0	0	519	509	0	78	38	1	
10	0	0	0	0	495	508	0	0	38	0	
11	0	0	0	0	497	510	0	0	38	0	
12	0	0	0	0	516	509	0	0	38	0	
13	0	0	0	0	528	510	0	0	38	0	
14	0	0	0	0	534	508	0	0	38	1	
15	0	0	0	0	552	508	0	0	38	1	
0	0	0	0	0	533	507	0	0	38	1	
1	0	0	0	0	498	506	0	0	38	1	
2	0	0	0	0	463	508	0	0	38	0	
3	0	0	0	0	482	508	0	0	38	0	
4	0	0	0	0	510	509	0	0	38	0	
5	0	0	0	0	532	508	0	0	38	0	
6	0	0	0	0	527	508	0	0	38	0	
7	0	0	0	0	513	508	0	0	38	1	
8	0	0	0	0	487	507	0	0	38	1	
9	0	0	0	0	440	507	0	0	38	1	
10	0	0	0	0	471	507	0	0	39	0	
11	0	0	0	0	514	508	0	0	38	0	
12	0	0	0	0	544	507	0	0	38	0	
13	0	0	0	0	534	508	0	0	38	0	
14	0	0	0	0	511	508	0	0	38	0	
15	0	0	0	0	516	509	0	0	38	1	
0	0	0	0	0	561	509	0	0	38	1	
1	0	0	0	0	589	509	0	0	38	1	
2	0	0	0	0	568	510	0	0	38	1	
3	0	0	0	0	511	509	0	0	38	0	
4	0	0	0	0	468	510	0	0	38	0	
5	0	0	0	0	422	510	0	0	38	0	
6	0	0	0	0	412	510	0	0	38	0	
7	0	0	0	0	483	508	0	0	38	0	
8	0	0	0	0	516	508	0	0	38	1	
9	0	0	0	0	503	507	0	607	38	1	
10	0	0	0	0	496	509	0	1016	39	1	
11	0	0	0	0	515	508	0	1017	38	0	
12	0	0	0	0	516	508	0	1017	38	0	
13	0	0	0	0	529	508	0	1018	38	0	
14	0	0	0	0	529	506	0	1018	38	0	
15	0	0	0	0	525	505	0	742	38	0	
0	0	0	0	0	503	508	0	620	38	1	
1	0	0	0	0	511	508	0	569	38	1	
2	0	0	0	0	516	507	0	359	39	1	
3	0	0	0	0	520	507	0	109	38	0	
4	0	0	0	0	526	507	0	0	38	0	
5	0	0	0	0	511	507	0	0	38	0	
6	0	0	0	0	472	507	0	0	38	0	
7	0	0	0	0	472	508	0	131	38	0	
8	0	0	0	0	467	509	0	260	38	0	
9	0	0	0	0	510	510	0	391	38	1	
10	0	0	0	0	540	508	0	677	39	1	
11	0	0	0	0	527	507	0	890	38	1	
12	0	0	0	0	552	506	0	997	38	0	
13	0	0	0	0	545	508	0	1017	38	0	
14	0	0	0	0	526	508	0	1018	38	0	
15	0	0	0	0	497	509	0	1018	38	0	
0	0	0	0	0	491	508	0	1017	38	0	
1	0	0	0	0	497	507	0	791	38	1	
2	0	0	0	0	536	505	0	606	39	1	
3	0	0	0	0	542	504	0	432	38	1	
4	0	0	0	0	518	506	0	236	38	0	
5	0	0	0	0	492	505	0	0	38	0	
6	0	0	0	0	475	506	0	0	38	0	
7	0	0	0	0	497	506	0	0	38	0	
8	0	0	0	0	517	505	0	0	38	1	
9	0	0	0	0	531	506	0	0	38	1	
10	0	0	0	0	537	509	0	0	39	1	
11	0	0	0	0	510	509	0	0	38	1	
12	0	0	0	0	483	509	0	0	38	0	
13	0	0	0	0	468	509	0	0	38	0	
14	0	0	0	0	459	509	0	0	38	0	
15	0	0	0	0	525	510	0	0	38	0	
0	0	0	0	0	549	509	0	0	38	0	
1	0	0	0	0	558	509	0	0	38	1	
2	0	0	0	0	510	510	0	0	38	1	
3	0	0	0	0	490	509	0	0	38	1	
4	0	0	0	0	496	509	0	0	38	1	
5	0	0	0	0	484	507	0	0	38	0	
6	0	0	0	0	494	508	0	0	38	0	
7	0	0	0	0	488	509	0	0	38	0	
8	0	0	0	0	465	508	0	0	38	0	
9	0	0	0	0	481	508	0	0	38	0	
10	0	0	0	0	511	510	0	0	39	1	
11	0	0	0	0	529	509	0	0	38	1	
12	0	0	0	0	537	508	0	0	38	1	
13	0	0	0	0	550	508	0	0	38	0	
14	0	0	0	0	536	508	0	0	38	0	
15	0	0	0	0	524	508	0	0	38	0	
0	0	0	0	0	502	508	0	0	38	0	
1	0	0	0	0	491	508	0	0	38	0	
2	0	0	0	0	489	508	0	0	38	1	
3	0	0	0	0	475	508	0	0	38	1	
4	0	0	0	0	494	507	0	0	38	1	
5	0	0	0	0	513	507	0	0	38	1	
6	0	0	0	0	533	507	0	0	38	0	
7	0	0	0	0	519	507	0	0	38	0	
8	0	0	0	0	521	508	0	351	38	0	
9	0	0	0	0	529	508	0	472	38	0	
10	0	0	0	0	520	509	0	388	38	1	
11	0	0	0	0	520	509	0	88	38	1	
12	0	0	0	0	525	509	0	0	38	1	
13	0	0	0	0	513	508	0	0	38	1	
14	0	0	0	0	512	508	0	0	38	0	
15	0	0	0	0	497	509	0	0	38	0	
0	0	0	0	0	485	510	0	0	38	0	
1	0	0	0	0	479	510	0	0	38	0	
2	0	0	0	0	478	509	0	0	38	1	
3	0	0	0	0	448	507	0	0	38	1	
4	0	0	0	0	483	506	0	0	38	1	
5	0	0	0	0	502	506	0	0	38	1	
6	0	0	0	0	509	507	0	0	38	0	
7	0	0	0	0	527	508	0	0	38	0	
8	0	0	0	0	528	509	0	0	38	0	
9	0	0	0	0	527	509	0	0	38	0	
10	0	0	0	0	520	508	0	0	38	1	
11	0	0	0	0	518	506	0	0	38	1	
12	0	0	0	0	506	506	0	0	38	1	
13	0	0	0	0	499	508	0	0	38	1	
14	0	0	0	0	511	508	0	0	38	1	
15	0	0	0	0	531	508	0	0	38	0	
0	0	0	0	0	548	510	0	0	38	0	
1	0	0	0	0	559	510	0	0	38	0	
2	0	0	0	0	564	509	0	0	38	0	
3	0	0	0	0	547	508	0	0	38	1	
4	0	0	0	0	539	509	0	0	38	1	
5	0	0	0	0	500	509	0	0	38	1	
6	0	0	0	0	481	510	0	0	38	1	
7	0	0	0	0	450	507	0	0	38	0	
8	0	0	0	0	461	507	0	0	38	0	
9	0	0	0	0	483	507	0	0	38	0	
10	0	0	0	0	444	508	0	0	38	0	
11	0	0	0	0	471	508	0	0	38	1	
12	0	0	0	0	503	505	0	0	38	1	
13	0	0	0	0	528	504	0	0	38	1	
14	0	0	0	0	517	505	0	0	38	1	
15	0	0	0	0	511	505	0	0	38	1	
0	0	0	0	0	528	505	0	0	38	0	
1	0	0	0	0	599	506	0	0	38	0	
2	0	0	0	0	582	506	0	0	38	0	
3	0	0	0	0	536	507	0	0	38	0	
4	0	0	0	0	486	507	0	0	38	1	
5	0	0	0	0	454	508	0	0	38	1	
6	0	0	0	0	435	507	0	0	38	1	
7	0	0	0	0	436	505	0	0	38	1	
8	0	0	0	0	477	509	0	0	38	0	
9	0	0	0	0	503	509	0	0	38	0	
10	0	0	0	0	541	508	0	0	39	0	
11	0	0	0	0	549	506	0	0	38	0	
12	0	0	0	0	548	508	0	0	38	1	
13	0	0	0	0	550	508	0	0	38	1	
14	0	0	0	0	533	509	0	0	38	1	
15	0	0	0	0	497	510	0	0	38	1	
0	0	0	0	0	495	509	0	0	38	0	
1	0	0	0	0	487	509	0	0	38	0	
2	0	0	0	0	481	507	0	0	39	0	
3	0	0	0	0	498	507	0	0	38	0	
4	0	0	0	0	488	506	0	0	38	1	
5	0	0	0	0	501	507	0	0	38	1	
6	0	0	0	0	496	507	0	0	38	1	
7	0	0	0	0	524	508	0	0	38	1	
8	0	0	0	0	531	507	0	0	38	1	
9	0	0	0	0	543	507	0	0	38	0	
10	0	0	0	0	523	506	0	0	38	0	
11	0	0	0	0	488	508	0	0	38	0	
12	0	0	0	0	474	509	0	0	38	1	
13	0	0	0	0	488	508	0	0	38	1	
14	0	0	0	0	519	509	0	0	38	1	
15	0	0	0	0	535	507	0	0	38	1	
0	0	0	0	0	516	507	0	0	38	1	
1	0	0	0	0	505	505	0	0	38	0	
2	0	0	0	0	508	508	0	0	38	0	
3	0	0	0	0	515	508	0	0	38	0	
4	0	0	0	0	496	508	0	0	38	0	
5	0	0	0	0	484	508	0	0	38	1	
6	0	0	0	0	505	509	0	0	38	1	
7	0	0	0	0	521	508	0	0	38	1	
8	0	0	0	0	519	509	0	0	38	1	
9	0	0	0	0	519	507	0	0	38	0	
10	0	0	0	0	522	507	0	0	38	0	
11	0	0	0	0	524	508	0	0	38	0	
12	0	0	0	0	523	507	0	0	38	0	
13	0	0	0	0	514	507	0	0	38	1	
14	0	0	0	0	500	506	0	0	38	1	
15	0	0	0	0	497	505	0	0	38	1	
0	0	0	0	0	490	508	0	0	38	1	
1	0	0	0	0	494	510	0	0	38	1	
2	0	0	0	0	503	510	0	0	39	0	
3	0	0	0	0	519	507	0	0	38	0	
4	0	0	0	0	511	505	0	0	38	0	
5	0	0	0	0	510	507	0	0	38	0	
6	0	0	0	0	522	507	0	0	38	1	
7	0	0	0	0	522	507	0	0	38	1	
8	0	0	0	0	522	507	0	0	38	1	
9	0	0	0	0	510	506	0	0	38	1	
10	0	0	0	0	532	506	0	0	39	0	
11	0	0	0	0	520	506	0	0	38	0	
12	0	0	0	0	497	507	0	0	38	0	
13	0	0	0	0	480	507	0	0	38	0	
14	0	0	0	0	513	506	0	0	38	1	
15	0	0	0	0	522	507	0	0	38	1	
0	0	0	0	0	527	508	0	0	38	1	
1	0	0	0	0	514	508	0	0	38	1	
2	0	0	0	0	506	507	0	0	39	0	
3	0	0	0	0	509	508	0	0	38	0	
4	0	0	0	0	496	509	0	0	38	0	
5	0	0	0	0	483	510	0	0	38	0	
6	0	0	0	0	476	510	0	0	38	1	
7	0	0	0	0	508	509	0	0	38	1	
8	0	0	0	0	458	508	0	0	38	1	
9	0	0	0	0	481	507	0	0	38	1	
10	0	0	0	0	505	508	0	0	38	0	
11	0	0	0	0	511	506	0	0	38	0	
12	0	0	0	0	517	507	0	0	38	0	
13	0	0	0	0	505	509	0	0	38	0	
14	0	0	0	0	513	507	0	0	38	0	
15	0	0	0	0	541	507	0	0	38	1	
0	0	0	0	0	549	506	0	0	38	1	
1	0	0	0	0	524	504	0	237	38	1	
2	0	0	0	0	498	505	0	688	39	1	
3	0	0	0	0	510	507	0	1018	38	0	
4	0	0	0	0	523	508	0	1018	38	0	
5	0	0	0	0	521	508	0	1018	38	0	
6	0	0	0	0	518	508	0	1018	38	0	
7	0	0	0	0	561	508	0	1018	38	0	
8	0	0	0	0	568	508	0	1018	38	1	
9	0	0	0	0	547	510	0	1018	38	1	
10	0	0	0	0	514	510	0	1018	39	1	
11	0	0	0	0	467	510	0	1018	38	0	
12	0	0	0	0	441	508	0	1018	38	0	
13	0	0	0	0	463	509	0	1018	38	0	
14	0	0	0	0	464	510	0	1018	38	0	
15	0	0	0	0	487	510	0	1018	38	0	
0	0	0	0	0	519	508	0	1018	38	1	
1	0	0	0	0	486	509	0	1018	38	1	
2	0	0	0	0	499	508	0	1018	39	1	
3	0	0	0	0	515	508	0	1018	38	0	
4	0	0	0	0	515	508	0	1017	38	0	
5	0	0	0	0	507	508	0	359	38	0	
6	0	0	0	0	506	506	0	0	38	0	
7	0	0	0	0	544	508	0	0	38	0	
8	0	0	0	0	538	509	0	0	38	1	
9	0	0	0	0	518	508	0	0	38	1	
10	0	0	0	0	472	508	0	0	39	1	
11	0	0	0	0	461	509	0	0	38	1	
12	0	0	0	0	460	510	0	0	38	0	
13	0	0	0	0	480	508	0	0	38	0	
14	0	0	0	0	531	507	0	0	38	0	
15	0	0	0	0	556	507	0	0	38	0	
0	0	0	0	0	539	507	0	0	38	0	
1	0	0	0	0	536	507	0	0	38	1	
2	0	0	0	0	532	508	0	0	38	1	
3	0	0	0	0	514	507	0	0	38	1	
4	0	0	0	0	540	508	0	0	38	0	
5	0	0	0	0	574	509	0	0	38	0	
6	0	0	0	0	563	507	0	0	38	0	
7	0	0	0	0	539	508	0	0	38	0	
8	0	0	0	0	518	509	0	0	38	0	
9	0	0	0	0	464	510	0	0	38	1	
10	0	0	0	0	429	509	0	0	38	1	
11	0	0	0	0	448	509	0	0	38	1	
12	0	0	0	0	460	510	0	0	38	0	
13	0	0	0	0	475	510	0	0	38	0	
14	0	0	0	0	530	509	0	0	38	0	
15	0	0	0	0	536	508	0	0	38	0	
0	0	0	0	0	531	509	0	0	38	0	
1	0	0	0	0	534	508	0	0	38	0	
2	0	0	0	0	528	507	0	0	38	1	
3	0	0	0	0	521	508	0	0	38	1	
4	0	0	0	0	506	510	0	0	38	0	
5	0	0	0	0	486	508	0	0	38	0	
6	0	0	0	0	479	510	0	0	38	0	
7	0	0	0	0	448	509	0	0	38	0	
8	0	0	0	0	487	510	0	0	38	0	
9	0	0	0	0	519	508	0	0	38	0	
10	0	0	0	0	544	508	0	0	38	1	
11	0	0	0	0	540	508	0	0	38	1	
12	0	0	0	0	528	509	0	0	38	1	
13	0	0	0	0	525	508	0	0	38	0	
14	0	0	0	0	481	505	0	0	38	0	
15	0	0	0	0	480	507	0	0	38	0	
0	0	0	0	0	515	505	0	0	38	0	
1	0	0	0	0	529	507	0	0	38	0	
2	0	0	0	0	504	507	0	0	39	1	
3	0	0	0	0	502	508	0	0	38	1	
4	0	0	0	0	502	509	0	0	38	1	
5	0	0	0	0	494	510	0	0	38	0	
6	0	0	0	0	497	509	0	0	38	0	
7	0	0	0	0	510	508	0	0	38	0	
8	0	0	0	0	515	506	0	0	38	0	
9	0	0	0	0	524	507	0	0	38	0	
10	0	0	0	0	548	507	0	0	38	1	
11	0	0	0	0	532	508	0	0	38	1	
12	0	0	0	0	519	506	0	0	38	1	
13	0	0	0	0	515	504	0	0	38	1	
14	0	0	0	0	516	505	0	0	38	0	
15	0	0	0	0	509	505	0	0	38	0	
0	0	0	0	0	484	505	0	0	38	0	
1	0	0	0	0	480	505	0	0	38	0	
2	0	0	0	0	459	505	0	0	39	0	
3	0	0	0	0	497	505	0	0	38	1	
4	0	0	0	0	508	505	0	0	38	1	
5	0	0	0	0	497	506	0	0	38	1	
6	0	0	0	0	511	506	0	0	38	0	
7	0	0	0	0	523	505	0	0	38	0	
8	0	0	0	0	524	505	0	0	38	0	
9	0	0	0	0	526	505	0	0	38	0	
10	0	0	0	0	511	505	0	0	39	0	
11	0	0	0	0	505	507	0	0	38	1	
12	0	0	0	0	518	508	0	0	38	1	
13	0	0	0	0	524	509	0	0	38	1	
14	0	0	0	0	528	510	0	0	38	0	
15	0	0	0	0	530	511	0	0	38	0	
0	0	0	0	0	528	509	0	0	38	0	
1	0	0	0	0	519	508	0	0	38	0	
2	0	0	0	0	507	507	0	0	38	0	
3	0	0	0	0	492	508	0	0	38	1	
4	0	0	0	0	498	508	0	0	38	1	
5	0	0	0	0	495	507	0	375	38	1	
6	0	0	0	0	517	507	0	878	38	1	
7	0	0	0	0	531	507	0	1018	38	0	
8	0	0	0	0	524	505	0	1018	38	0	
9	0	0	0	0	495	506	0	1018	38	0	
10	0	0	0	0	444	504	0	1018	39	0	
11	0	0	0	0	439	506	0	1018	38	0	
12	0	0	0	0	491	508	0	1018	38	1	
13	0	0	0	0	492	506	0	1018	38	1	
14	0	0	0	0	506	506	0	1018	38	1	
15	0	0	0	0	527	508	0	1018	38	0	
0	0	0	0	0	530	506	0	1018	38	0	
1	0	0	0	0	525	508	0	1018	38	0	
2	0	0	0	0	516	507	0	1018	38	0	
3	0	0	0	0	519	506	0	1018	38	1	
4	0	0	0	0	527	507	0	1018	38	1	
5	0	0	0	0	551	508	0	1018	38	1	
6	0	0	0	0	530	509	0	1018	38	1	
7	0	0	0	0	547	509	0	1018	38	1	
8	0	0	0	0	537	509	0	860	38	0	
9	0	0	0	0	500	508	0	743	38	0	
10	0	0	0	0	510	507	0	748	39	0	
11	0	0	0	0	481	507	0	630	38	0	
12	0	0	0	0	462	508	0	541	38	1	
13	0	0	0	0	500	509	0	514	38	1	
14	0	0	0	0	488	509	0	480	38	1	
15	0	0	0	0	503	507	0	349	38	1	
0	0	0	0	0	522	505	0	160	38	0	
1	0	0	0	0	537	506	0	140	38	0	
2	0	0	0	0	555	505	0	101	39	0	
3	0	0	0	0	535	506	0	35	38	0	
4	0	0	0	0	503	506	0	0	38	1	
5	0	0	0	0	483	505	0	0	38	1	
6	0	0	0	0	437	506	0	0	38	1	
7	0	0	0	0	444	506	0	0	38	1	
8	0	0	0	0	484	508	0	0	38	0	
9	0	0	0	0	534	509	0	0	38	0	
10	0	0	0	0	546	509	0	0	39	0	
11	0	0	0	0	510	509	0	0	38	0	
12	0	0	0	0	482	510	0	0	38	1	
13	0	0	0	0	504	509	0	0	38	1	
14	0	0	0	0	523	508	0	0	38	1	
15	0	0	0	0	505	508	0	604	38	1	
0	0	0	0	0	492	509	0	1018	38	1	
1	0	0	0	0	487	509	0	1018	38	0	
2	0	0	0	0	482	508	0	1018	38	0	
3	0	0	0	0	519	507	0	1018	38	0	
4	0	0	0	0	519	506	0	1018	38	0	
5	0	0	0	0	508	507	0	1018	38	1	
6	0	0	0	0	532	507	0	1018	38	1	
7	0	0	0	0	552	507	0	1018	38	1	
8	0	0	0	0	547	507	0	1018	38	1	
9	0	0	0	0	534	508	0	1017	38	1	
10	0	0	0	0	531	509	0	1018	39	0	
11	0	0	0	0	531	509	0	1018	38	0	
12	0	0	0	0	528	510	0	1018	38	0	
13	0	0	0	0	525	511	0	1018	38	1	
14	0	0	0	0	513	512	0	1018	38	1	
15	0	0	0	0	484	513	0	1018	38	1	
0	0	0	0	0	483	512	0	1018	38	1	
1	0	0	0	0	475	510	0	1018	38	1	
2	0	0	0	0	486	510	0	1018	38	0	
3	0	0	0	0	488	508	0	1018	38	0	
4	0	0	0	0	505	507	0	1018	38	0	
5	0	0	0	0	528	508	0	1018	38	1	
6	0	0	0	0	553	509	0	1018	38	1	
7	0	0	0	0	543	508	0	1018	38	1	
8	0	0	0	0	542	508	0	1018	38	1	
9	0	0	0	0	531	508	0	1018	38	1	
10	0	0	0	0	496	507	0	1018	39	0	
11	0	0	0	0	469	507	0	1018	38	0	
12	0	0	0	0	402	508	0	1018	38	1	
13	0	0	0	0	416	506	0	1018	38	0	
14	0	0	0	0	473	508	0	1018	38	1	
15	0	0	0	0	520	508	0	1018	38	1	
0	0	0	0	0	547	506	0	770	38	1	
1	0	0	0	0	571	507	0	451	38	1	
2	0	0	0	0	565	506	0	133	39	0	
3	0	0	0	0	536	506	0	0	38	0	
4	0	0	0	0	501	506	0	0	38	0	
5	0	0	0	0	480	508	0	0	38	0	
6	0	0	0	0	445	508	0	0	38	1	
7	0	0	0	0	488	508	0	0	38	1	
8	0	0	0	0	518	506	0	0	38	1	
9	0	0	0	0	516	505	0	0	38	1	
10	0	0	0	0	531	504	0	0	38	0	
11	0	0	0	0	543	505	0	0	38	0	
12	0	0	0	0	548	505	0	0	38	0	
13	0	0	0	0	524	507	0	0	38	0	
14	0	0	0	0	505	508	0	0	38	1	
15	0	0	0	0	507	508	0	0	38	1	
0	0	0	0	0	502	508	0	0	38	1	
1	0	0	0	0	492	508	0	0	38	1	
2	0	0	0	0	504	509	0	0	38	1	
3	0	0	0	0	508	508	0	0	38	0	
4	0	0	0	0	496	509	0	0	38	0	
5	0	0	0	0	480	509	0	0	38	0	
6	0	0	0	0	497	507	0	0	38	0	
7	0	0	0	0	520	506	0	0	38	1	
8	0	0	0	0	508	506	0	0	38	1	
9	0	0	0	0	505	506	0	0	38	1	
10	0	0	0	0	520	508	0	0	38	1	
11	0	0	0	0	523	507	0	0	38	0	
12	0	0	0	0	517	506	0	0	38	0	
13	0	0	0	0	511	507	0	0	38	0	
14	0	0	0	0	513	506	0	0	38	0	
15	0	0	0	0	495	505	0	0	38	1	
0	0	0	0	0	481	504	0	0	38	1	
1	0	0	0	0	498	507	0	0	38	1	
2	0	0	0	0	516	508	0	0	38	1	
3	0	0	0	0	527	507	0	0	38	0	
4	0	0	0	0	525	506	0	0	38	0	
5	0	0	0	0	528	505	0	0	38	0	
6	0	0	0	0	519	505	0	0	38	0	
7	0	0	0	0	517	507	0	0	38	1	
8	0	0	0	0	513	507	0	0	38	1	
9	0	0	0	0	510	508	0	0	38	1	
10	0	0	0	0	540	506	0	0	38	1	
11	0	0	0	0	533	507	0	0	38	1	
12	0	0	0	0	508	507	0	0	38	0	
13	0	0	0	0	491	507	0	0	38	0	
14	0	0	0	0	478	507	0	0	38	0	
15	0	0	0	0	470	507	0	0	38	0	
0	0	0	0	0	456	506	0	0	38	1	
1	0	0	0	0	464	508	0	0	38	1	
2	0	0	0	0	520	508	0	436	39	1	
3	0	0	0	0	531	508	0	819	38	1	
4	0	0	0	0	543	508	0	1018	38	0	
5	0	0	0	0	562	509	0	1018	38	0	
6	0	0	0	0	563	509	0	1018	38	0	
7	0	0	0	0	527	507	0	1018	38	0	
8	0	0	0	0	507	508	0	1018	38	1	
9	0	0	0	0	463	507	0	1018	38	1	
10	0	0	0	0	453	507	0	1018	38	1	
11	0	0	0	0	446	507	0	1018	38	1	
12	0	0	0	0	497	506	0	1018	38	0	
13	0	0	0	0	508	507	0	1018	38	0	
14	0	0	0	0	524	508	0	1018	38	0	
15	0	0	0	0	545	507	0	1018	38	0	
0	0	0	0	0	548	506	0	1018	38	0	
1	0	0	0	0	534	507	0	1018	38	1	
2	0	0	0	0	510	508	0	1018	38	1	
3	0	0	0	0	490	509	0	1018	38	1	
4	0	0	0	0	480	508	0	1018	38	0	
5	0	0	0	0	489	507	0	1018	38	0	
6	0	0	0	0	504	507	0	1018	38	0	
7	0	0	0	0	492	508	0	1018	38	0	
8	0	0	0	0	511	509	0	1018	38	0	
9	0	0	0	0	502	509	0	1018	38	1	
10	0	0	0	0	498	509	0	1018	39	1	
11	0	0	0	0	548	508	0	1018	38	1	
12	0	0	0	0	572	509	0	1018	38	1	
13	0	0	0	0	556	510	0	1018	38	0	
14	0	0	0	0	500	510	0	1018	38	0	
15	0	0	0	0	461	510	0	1018	38	0	
0	0	0	0	0	459	510	0	1018	38	0	
1	0	0	0	0	426	509	0	1018	38	0	
2	0	0	0	0	489	510	0	1018	39	1	
3	0	0	0	0	543	508	0	1018	38	1	
4	0	0	0	0	545	508	0	1018	38	1	
5	0	0	0	0	535	508	0	1018	38	0	
6	0	0	0	0	518	507	0	1018	38	0	
7	0	0	0	0	515	508	0	1018	38	0	
8	0	0	0	0	528	506	0	1018	38	0	
9	0	0	0	0	530	504	0	1018	38	0	
10	0	0	0	0	519	505	0	1018	39	1	
11	0	0	0	0	521	506	0	1018	38	1	
12	0	0	0	0	515	506	0	1018	38	1	
13	0	0	0	0	505	506	0	1018	38	0	
14	0	0	0	0	492	505	0	1018	38	0	
15	0	0	0	0	489	504	0	1018	38	0	
0	0	0	0	0	515	505	0	1018	38	0	
1	0	0	0	0	524	506	0	1018	38	0	
2	0	0	0	0	513	506	0	1018	38	0	
3	0	0	0	0	512	506	0	1018	38	1	
4	0	0	0	0	506	506	0	1018	38	1	
5	0	0	0	0	499	505	0	1018	38	1	
6	0	0	0	0	503	505	0	1018	38	0	
7	0	0	0	0	499	507	0	1018	38	0	
8	0	0	0	0	503	505	0	1018	38	0	
9	0	0	0	0	517	506	0	1018	38	0	
10	0	0	0	0	509	507	0	1018	39	0	
11	0	0	0	0	478	508	0	1018	38	0	
12	0	0	0	0	504	508	0	1018	38	1	
13	0	0	0	0	534	507	0	1018	38	1	
14	0	0	0	0	545	507	0	1018	38	0	
15	0	0	0	0	547	508	0	1018	38	0	
0	0	0	0	0	541	507	0	1018	38	0	
1	0	0	0	0	519	509	0	1018	38	0	
2	0	0	0	0	490	507	0	1018	39	0	
3	0	0	0	0	444	507	0	1018	38	1	
4	0	0	0	0	451	507	0	1018	38	1	
5	0	0	0	0	483	508	0	1018	38	1	
6	0	0	0	0	527	508	0	1018	38	1	
7	0	0	0	0	521	507	0	1018	38	0	
8	0	0	0	0	511	509	0	1018	38	0	
9	0	0	0	0	535	508	0	1018	38	0	
10	0	0	0	0	515	507	0	1018	39	0	
11	0	0	0	0	502	507	0	1018	38	1	
12	0	0	0	0	518	505	0	1018	38	1	
13	0	0	0	0	514	506	0	1018	38	1	
14	0	0	0	0	498	505	0	1018	38	1	
15	0	0	0	0	487	506	0	1018	38	0	
0	0	0	0	0	488	508	0	1018	38	0	
1	0	0	0	0	506	506	0	1018	38	0	
2	0	0	0	0	521	505	0	1018	38	0	
3	0	0	0	0	534	505	0	1018	38	1	
4	0	0	0	0	547	506	0	1018	38	1	
5	0	0	0	0	536	507	0	1018	38	1	
6	0	0	0	0	529	507	0	1018	38	1	
7	0	0	0	0	496	506	0	1018	38	0	
8	0	0	0	0	486	505	0	1018	38	0	
9	0	0	0	0	499	505	0	489	38	0	
10	0	0	0	0	488	506	0	253	39	0	
11	0	0	0	0	501	508	0	31	38	0	
12	0	0	0	0	521	507	0	0	38	1	
13	0	0	0	0	525	507	0	0	38	1	
14	0	0	0	0	506	507	0	0	38	1	
15	0	0	0	0	490	508	0	0	38	1	
0	0	0	0	0	473	506	0	0	38	0	
1	0	0	0	0	463	506	0	0	38	0	
2	0	0	0	0	490	506	0	0	39	0	
3	0	0	0	0	511	506	0	0	38	0	
4	0	0	0	0	524	506	0	0	38	1	
5	0	0	0	0	535	507	0	0	38	1	
6	0	0	0	0	540	508	0	0	38	1	
7	0	0	0	0	525	507	0	0	38	1	
8	0	0	0	0	526	509	0	0	38	0	
9	0	0	0	0	512	509	0	0	38	0	
10	0	0	0	0	507	508	0	0	38	0	
11	0	0	0	0	502	510	0	0	38	0	
12	0	0	0	0	496	512	0	0	38	1	
13	0	0	0	0	507	510	0	0	38	1	
14	0	0	0	0	515	511	0	0	38	1	
15	0	0	0	0	527	511	0	0	38	1	
0	0	0	0	0	544	511	0	0	38	0	
1	0	0	0	0	553	510	0	0	38	0	
2	0	0	0	0	525	511	0	0	39	0	
3	0	0	0	0	499	510	0	0	38	0	
4	0	0	0	0	494	508	0	0	38	0	
5	0	0	0	0	463	507	0	0	38	1	
6	0	0	0	0	458	507	0	0	38	1	
7	0	0	0	0	475	506	0	0	38	1	
8	0	0	0	0	483	506	0	0	38	1	
9	0	0	0	0	503	506	0	0	38	0	
10	0	0	0	0	511	505	0	0	39	0	
11	0	0	0	0	524	506	0	0	38	0	
12	0	0	0	0	529	506	0	0	38	0	
13	0	0	0	0	532	507	0	0	38	1	
14	0	0	0	0	537	506	0	0	38	1	
15	0	0	0	0	534	505	0	0	38	1	
0	0	0	0	0	556	506	0	0	38	1	
1	0	0	0	0	563	507	0	0	38	0	
2	0	0	0	0	524	509	0	0	38	0	
3	0	0	0	0	480	508	0	0	38	0	
4	0	0	0	0	471	508	0	0	38	0	
5	0	0	0	0	454	510	0	0	38	1	
6	0	0	0	0	414	508	0	0	38	1	
7	0	0	0	0	436	509	0	0	38	1	
8	0	0	0	0	466	509	0	0	38	1	
9	0	0	0	0	503	510	0	0	38	1	
10	0	0	0	0	541	511	0	0	39	0	
11	0	0	0	0	557	510	0	0	38	0	
12	0	0	0	0	561	509	0	0	38	0	
13	0	0	0	0	555	508	0	0	38	1	
14	0	0	0	0	530	507	0	0	38	1	
15	0	0	0	0	508	509	0	0	38	1	
0	0	0	0	0	488	509	0	0	38	1	
1	0	0	0	0	473	509	0	0	38	1	
2	0	0	0	0	512	510	0	0	39	0	
3	0	0	0	0	529	509	0	0	38	0	
4	0	0	0	0	529	508	0	0	38	0	
5	0	0	0	0	514	508	0	0	38	0	
6	0	0	0	0	497	509	0	0	38	1	
7	0	0	0	0	496	507	0	0	38	1	
8	0	0	0	0	472	509	0	0	38	1	
9	0	0	0	0	469	509	0	0	38	1	
10	0	0	0	0	510	508	0	0	38	0	
11	0	0	0	0	540	508	0	0	38	0	
12	0	0	0	0	549	507	0	0	38	0	
13	0	0	0	0	534	507	0	0	38	0	
14	0	0	0	0	516	507	0	0	38	1	
15	0	0	0	0	509	508	0	0	38	1	
0	0	0	0	0	509	507	0	0	38	1	
1	0	0	0	0	514	508	0	0	38	1	
2	0	0	0	0	502	507	0	0	38	1	
3	0	0	0	0	502	507	0	0	38	0	
4	0	0	0	0	509	507	0	0	38	0	
5	0	0	0	0	517	507	0	0	38	0	
6	0	0	0	0	504	508	0	0	38	1	
7	0	0	0	0	501	510	0	0	38	1	
8	0	0	0	0	505	509	0	0	38	1	
9	0	0	0	0	517	509	0	0	38	1	
10	0	0	0	0	548	511	0	0	39	1	
11	0	0	0	0	548	510	0	0	38	0	
12	0	0	0	0	501	510	0	0	38	0	
13	0	0	0	0	466	510	0	0	38	0	
14	0	0	0	0	463	508	0	0	38	0	
15	0	0	0	0	471	507	0	0	38	1	
0	0	0	0	0	500	507	0	0	38	1	
1	0	0	0	0	509	506	0	0	38	1	
2	0	0	0	0	508	507	0	0	38	1	
3	0	0	0	0	511	503	0	0	38	0	
4	0	0	0	0	531	505	0	0	38	0	
5	0	0	0	0	541	506	0	0	38	0	
6	0	0	0	0	551	506	0	0	38	0	
7	0	0	0	0	548	507	0	0	38	1	
8	0	0	0	0	524	507	0	0	38	1	
9	0	0	0	0	493	505	0	0	38	1	
10	0	0	0	0	470	507	0	0	39	1	
11	0	0	0	0	490	508	0	0	38	1	
12	0	0	0	0	467	508	0	0	38	0	
13	0	0	0	0	472	508	0	0	38	0	
14	0	0	0	0	492	510	0	0	38	0	
15	0	0	0	0	491	510	0	0	38	0	
0	0	0	0	0	498	507	0	2	38	1	
1	0	0	0	0	518	507	0	0	38	1	
2	0	0	0	0	510	507	0	0	39	1	
3	0	0	0	0	524	507	0	0	38	1	
4	0	0	0	0	516	507	0	0	38	0	
5	0	0	0	0	520	507	0	0	38	0	
6	0	0	0	0	550	508	0	0	38	0	
7	0	0	0	0	556	507	0	0	38	0	
8	0	0	0	0	530	504	0	0	38	1	
9	0	0	0	0	523	505	0	0	38	1	
10	0	0	0	0	497	504	0	0	38	1	
11	0	0	0	0	493	506	0	0	38	1	
12	0	0	0	0	449	506	0	0	38	0	
13	0	0	0	0	478	504	0	537	38	0	
14	0	0	0	0	515	507	0	863	38	0	
15	0	0	0	0	515	508	0	1018	38	0	
0	0	0	0	0	512	508	0	1018	38	0	
1	0	0	0	0	519	509	0	1018	38	1	
2	0	0	0	0	525	508	0	1018	38	1	
3	0	0	0	0	523	507	0	1018	38	1	
4	0	0	0	0	508	508	0	1018	38	1	
5	0	0	0	0	490	508	0	1018	38	0	
6	0	0	0	0	500	507	0	1018	38	0	
7	0	0	0	0	491	507	0	1018	38	0	
8	0	0	0	0	497	506	0	1018	38	0	
9	0	0	0	0	511	507	0	1018	38	1	
10	0	0	0	0	522	509	0	1018	39	1	
11	0	0	0	0	520	510	0	1018	38	1	
12	0	0	0	0	530	509	0	1018	38	1	
13	0	0	0	0	545	509	0	1018	38	0	
14	0	0	0	0	560	508	0	1018	38	0	
15	0	0	0	0	547	509	0	1018	38	0	
0	0	0	0	0	523	509	0	1018	38	0	
1	0	0	0	0	503	508	0	1018	38	1	
2	0	0	0	0	473	507	0	1018	39	1	
3	0	0	0	0	496	507	0	1018	38	1	
4	0	0	0	0	511	507	0	1018	38	1	
5	0	0	0	0	492	508	0	1018	38	0	
6	0	0	0	0	471	510	0	1018	38	0	
7	0	0	0	0	428	511	0	1018	38	0	
8	0	0	0	0	456	511	0	1018	38	0	
9	0	0	0	0	477	508	0	1018	38	0	
10	0	0	0	0	500	510	0	1018	39	1	
11	0	0	0	0	526	510	0	1018	38	1	
12	0	0	0	0	547	509	0	1018	38	1	
13	0	0	0	0	538	508	0	1018	38	0	
14	0	0	0	0	540	508	0	1018	38	0	
15	0	0	0	0	547	506	0	1018	38	0	
0	0	0	0	0	544	506	0	1018	38	0	
1	0	0	0	0	536	507	0	1018	38	0	
2	0	0	0	0	508	508	0	1018	39	1	
3	0	0	0	0	510	508	0	1018	38	1	
4	0	0	0	0	512	509	0	1018	38	1	
5	0	0	0	0	494	510	0	1018	38	1	
6	0	0	0	0	495	509	0	1018	38	0	
7	0	0	0	0	479	506	0	1018	38	0	
8	0	0	0	0	472	507	0	1018	38	0	
9	0	0	0	0	506	505	0	1018	38	0	
10	0	0	0	0	505	504	0	1018	39	0	
11	0	0	0	0	520	505	0	1018	38	1	
12	0	0	0	0	528	507	0	1018	38	1	
13	0	0	0	0	529	507	0	1018	38	1	
14	0	0	0	0	529	508	0	1018	38	0	
15	0	0	0	0	496	509	0	1018	38	0	
0	0	0	0	0	459	510	0	1018	38	0	
1	0	0	0	0	475	508	0	1018	38	0	
2	0	0	0	0	494	508	0	1018	39	0	
3	0	0	0	0	508	509	0	1018	38	1	
4	0	0	0	0	487	510	0	1018	38	1	
5	0	0	0	0	519	511	0	1018	38	1	
6	0	0	0	0	532	511	0	1018	38	0	
7	0	0	0	0	546	510	0	1018	38	0	
8	0	0	0	0	533	510	0	1018	38	0	
9	0	0	0	0	519	509	0	1018	38	0	
10	0	0	0	0	520	508	0	1018	39	0	
11	0	0	0	0	509	507	0	1018	38	0	
12	0	0	0	0	501	506	0	1018	38	1	
13	0	0	0	0	494	507	0	1018	38	1	
14	0	0	0	0	504	508	0	1018	38	1	
15	0	0	0	0	495	507	0	1018	38	0	
0	0	0	0	0	500	508	0	1018	38	0	
1	0	0	0	0	512	508	0	1018	38	0	
2	0	0	0	0	527	508	0	1018	38	0	
3	0	0	0	0	540	510	0	1018	38	0	
4	0	0	0	0	538	509	0	1018	38	1	
5	0	0	0	0	525	509	0	1018	38	1	
6	0	0	0	0	505	510	0	1018	38	1	
7	0	0	0	0	507	508	0	1018	38	0	
8	0	0	0	0	490	509	0	1018	38	0	
9	0	0	0	0	501	509	0	1018	38	0	
10	0	0	0	0	509	509	0	1018	39	0	
11	0	0	0	0	519	509	0	1018	38	0	
12	0	0	0	0	521	508	0	1018	38	1	
13	0	0	0	0	508	508	0	1018	38	1	
14	0	0	0	0	489	508	0	1018	38	1	
15	0	0	0	0	471	507	0	1018	38	0	
0	0	0	0	0	476	510	0	1018	38	0	
1	0	0	0	0	488	511	0	1018	38	0	
2	0	0	0	0	515	511	0	1018	38	0	
3	0	0	0	0	545	510	0	1018	38	0	
4	0	0	0	0	543	508	0	1018	38	1	
5	0	0	0	0	519	509	0	1018	38	1	
6	0	0	0	0	508	508	0	1018	38	1	
7	0	0	0	0	492	508	0	1018	38	0	
8	0	0	0	0	477	509	0	1018	38	0	
9	0	0	0	0	503	507	0	1018	38	0	
10	0	0	0	0	505	508	0	1018	38	0	
11	0	0	0	0	515	507	0	1018	38	0	
12	0	0	0	0	526	508	0	1018	38	1	
13	0	0	0	0	504	506	0	1018	38	1	
14	0	0	0	0	496	506	0	1018	38	1	
15	0	0	0	0	507	507	0	1018	38	1	
0	0	0	0	0	524	508	0	1018	38	0	
1	0	0	0	0	523	510	0	1018	38	0	
2	0	0	0	0	512	511	0	1018	39	0	
3	0	0	0	0	518	509	0	1018	38	0	
4	0	0	0	0	538	508	0	1018	38	0	
5	0	0	0	0	527	508	0	1018	38	1	
6	0	0	0	0	515	509	0	1018	38	1	
7	0	0	0	0	516	510	0	845	38	1	
8	0	0	0	0	499	510	0	624	38	0	
9	0	0	0	0	454	510	0	380	38	0	
10	0	0	0	0	446	511	0	126	39	0	
11	0	0	0	0	475	508	0	0	38	0	
12	0	0	0	0	490	508	0	0	38	0	
13	0	0	0	0	501	508	0	0	38	1	
14	0	0	0	0	507	507	0	0	38	1	
15	0	0	0	0	526	507	0	0	38	1	
0	0	0	0	0	531	508	0	0	38	1	
1	0	0	0	0	531	509	0	0	38	0	
2	0	0	0	0	537	508	0	335	39	0	
3	0	0	0	0	536	510	0	491	38	0	
4	0	0	0	0	543	511	0	644	38	0	
5	0	0	0	0	544	510	0	836	38	1	
6	0	0	0	0	511	508	0	979	38	1	
7	0	0	0	0	495	507	0	1018	38	1	
8	0	0	0	0	471	506	0	1018	38	1	
9	0	0	0	0	495	507	0	1018	38	0	
10	0	0	0	0	525	508	0	1018	39	0	
11	0	0	0	0	515	509	0	1018	38	0	
12	0	0	0	0	515	508	0	1018	38	0	
13	0	0	0	0	529	508	0	1018	38	0	
14	0	0	0	0	515	510	0	1018	38	1	
15	0	0	0	0	482	511	0	1018	38	1	
0	0	0	0	0	491	509	0	1018	38	1	
1	0	0	0	0	499	508	0	1018	38	1	
2	0	0	0	0	502	508	0	1018	39	0	
3	0	0	0	0	505	509	0	1018	38	0	
4	0	0	0	0	506	509	0	1018	38	0	
5	0	0	0	0	508	511	0	1018	38	0	
6	0	0	0	0	530	510	0	1018	38	1	
7	0	0	0	0	519	508	0	1018	38	1	
8	0	0	0	0	524	509	0	1018	38	1	
9	0	0	0	0	519	509	0	1018	38	1	
10	0	0	0	0	476	509	0	1018	38	0	
11	0	0	0	0	465	510	0	1018	38	0	
12	0	0	0	0	480	510	0	1018	38	0	
13	0	0	0	0	528	510	0	1018	38	0	
14	0	0	0	0	546	509	0	1018	38	1	
15	0	0	0	0	536	509	0	1018	38	1	
0	0	0	0	0	524	510	0	1018	38	1	
1	0	0	0	0	548	510	0	1017	38	1	
2	0	0	0	0	532	509	0	1018	39	0	
3	0	0	0	0	517	508	0	1018	38	0	
4	0	0	0	0	494	507	0	1018	38	0	
5	0	0	0	0	458	506	0	1018	38	0	
6	0	0	0	0	462	507	0	1018	38	1	
7	0	0	0	0	466	507	0	1018	38	1	
8	0	0	0	0	467	509	0	1018	38	1	
9	0	0	0	0	467	509	0	1018	38	1	
10	0	0	0	0	481	505	0	1018	39	1	
11	0	0	0	0	525	505	0	1018	38	0	
12	0	0	0	0	536	505	0	1018	38	0	
13	0	0	0	0	543	505	0	1018	38	0	
14	0	0	0	0	552	507	0	1018	38	1	
15	0	0	0	0	559	506	0	1018	38	1	
0	0	0	0	0	567	504	0	1018	38	1	
1	0	0	0	0	545	507	0	752	38	1	
2	0	0	0	0	515	507	0	408	38	1	
3	0	0	0	0	480	506	0	169	38	1	
4	0	0	0	0	481	507	0	57	38	0	
5	0	0	0	0	471	506	0	118	38	0	
6	0	0	0	0	456	505	0	212	38	0	
7	0	0	0	0	479	508	0	325	38	1	
8	0	0	0	0	521	507	0	488	38	1	
9	0	0	0	0	537	504	0	620	38	1	
10	0	0	0	0	543	505	0	756	39	1	
11	0	0	0	0	537	505	0	973	38	1	
12	0	0	0	0	527	505	0	1018	38	0	
13	0	0	0	0	519	506	0	1018	38	0	
14	0	0	0	0	494	506	0	1018	38	0	
15	0	0	0	0	474	505	0	1018	38	1	
0	0	0	0	0	504	505	0	1018	38	1	
1	0	0	0	0	515	504	0	1018	38	1	
2	0	0	0	0	521	507	0	1018	38	1	
3	0	0	0	0	526	506	0	1018	38	1	
4	0	0	0	0	523	505	0	1018	38	0	
5	0	0	0	0	503	506	0	1018	38	0	
6	0	0	0	0	485	505	0	1018	38	0	
7	0	0	0	0	502	506	0	1018	38	0	
8	0	0	0	0	511	507	0	1018	38	1	
9	0	0	0	0	519	507	0	1018	38	1	
10	0	0	0	0	521	509	0	1018	39	1	
11	0	0	0	0	510	508	0	1018	38	1	
12	0	0	0	0	503	509	0	1018	38	0	
13	0	0	0	0	512	508	0	1018	38	0	
14	0	0	0	0	500	507	0	1018	38	0	
15	0	0	0	0	501	507	0	872	38	0	
0	0	0	0	0	491	507	0	545	38	1	
1	0	0	0	0	501	507	0	293	38	1	
2	0	0	0	0	528	506	0	235	39	1	
3	0	0	0	0	540	506	0	141	38	1	
4	0	0	0	0	524	508	0	0	38	0	
5	0	0	0	0	513	509	0	0	38	0	
6	0	0	0	0	488	508	0	0	38	0	
7	0	0	0	0	500	508	0	0	38	0	
8	0	0	0	0	499	508	0	0	38	1	
9	0	0	0	0	488	508	0	226	38	1	
10	0	0	0	0	500	508	0	378	38	1	
11	0	0	0	0	496	509	0	410	38	1	
12	0	0	0	0	502	508	0	410	38	1	
13	0	0	0	0	494	509	0	412	38	0	
14	0	0	0	0	488	506	0	375	38	0	
15	0	0	0	0	516	507	0	295	38	0	
0	0	0	0	0	513	508	0	339	38	0	
1	0	0	0	0	510	506	0	365	38	1	
2	0	0	0	0	516	507	0	414	39	1	
3	0	0	0	0	505	507	0	508	38	1	
4	0	0	0	0	515	506	0	578	38	1	
5	0	0	0	0	533	508	0	521	38	0	
6	0	0	0	0	532	508	0	382	38	0	
7	0	0	0	0	527	507	0	177	38	0	
8	0	0	0	0	541	507	0	0	38	0	
9	0	0	0	0	530	508	0	0	38	1	
10	0	0	0	0	514	509	0	9	38	1	
11	0	0	0	0	523	507	0	0	38	1	
12	0	0	0	0	516	507	0	30	38	1	
13	0	0	0	0	507	508	0	131	38	0	
14	0	0	0	0	497	509	0	365	38	0	
15	0	0	0	0	492	509	0	734	38	0	
0	0	0	0	0	463	510	0	1015	38	0	
1	0	0	0	0	458	510	0	1017	38	0	
2	0	0	0	0	471	507	0	1018	39	1	
3	0	0	0	0	498	508	0	1018	38	1	
4	0	0	0	0	541	507	0	1017	38	1	
5	0	0	0	0	559	505	0	1017	38	1	
6	0	0	0	0	550	506	0	776	38	0	
7	0	0	0	0	519	506	0	655	38	0	
8	0	0	0	0	483	506	0	554	38	0	
9	0	0	0	0	460	508	0	390	38	0	
10	0	0	0	0	434	508	0	329	39	1	
11	0	0	0	0	467	507	0	428	38	1	
12	0	0	0	0	523	506	0	667	38	1	
13	0	0	0	0	550	506	0	723	38	1	
14	0	0	0	0	539	504	0	796	38	0	
15	0	0	0	0	517	505	0	750	38	0	
0	0	0	0	0	519	507	0	615	38	0	
1	0	0	0	0	518	506	0	560	38	0	
2	0	0	0	0	513	507	0	558	39	1	
3	0	0	0	0	514	507	0	597	38	1	
4	0	0	0	0	518	506	0	638	38	1	
5	0	0	0	0	520	507	0	611	38	1	
6	0	0	0	0	522	506	0	563	38	0	
7	0	0	0	0	512	505	0	491	38	0	
8	0	0	0	0	514	507	0	540	38	0	
9	0	0	0	0	513	505	0	583	38	0	
10	0	0	0	0	502	508	0	545	39	0	
11	0	0	0	0	511	506	0	515	38	1	
12	0	0	0	0	523	507	0	525	38	1	
13	0	0	0	0	535	508	0	448	38	1	
14	0	0	0	0	540	508	0	381	38	0	
15	0	0	0	0	555	507	0	287	38	0	
0	0	0	0	0	522	508	0	106	38	0	
1	0	0	0	0	477	507	0	0	38	0	
2	0	0	0	0	450	507	0	0	39	0	
3	0	0	0	0	457	507	0	0	38	1	
4	0	0	0	0	461	509	0	0	38	1	
5	0	0	0	0	474	511	0	0	38	1	
6	0	0	0	0	489	512	0	0	38	1	
7	0	0	0	0	503	513	0	0	38	0	
8	0	0	0	0	513	511	0	0	38	0	
9	0	0	0	0	539	511	0	0	38	0	
10	0	0	0	0	550	512	0	0	38	0	
11	0	0	0	0	545	511	0	0	38	0	
12	0	0	0	0	569	510	0	0	38	1	
13	0	0	0	0	563	511	0	0	38	1	
14	0	0	0	0	515	510	0	0	38	1	
15	0	0	0	0	487	509	0	0	38	0	
0	0	0	0	0	463	509	0	0	38	0	
1	0	0	0	0	419	508	0	0	38	0	
2	0	0	0	0	421	508	0	0	38	0	
3	0	0	0	0	450	508	0	0	38	0	
4	0	0	0	0	498	508	0	0	38	0	
5	0	0	0	0	531	509	0	0	38	1	
6	0	0	0	0	564	510	0	0	38	1	
7	0	0	0	0	560	509	0	0	38	0	
8	0	0	0	0	536	509	0	0	38	0	
9	0	0	0	0	504	508	0	0	38	0	
10	0	0	0	0	488	508	0	0	38	0	
11	0	0	0	0	508	509	0	0	38	0	
12	0	0	0	0	498	508	0	297	38	0	
13	0	0	0	0	517	507	0	609	38	1	
14	0	0	0	0	534	507	0	843	38	1	
15	0	0	0	0	527	508	0	922	38	1	
0	0	0	0	0	510	509	0	947	38	0	
1	0	0	0	0	512	509	0	975	38	0	
2	0	0	0	0	514	509	0	916	39	0	
3	0	0	0	0	504	509	0	740	38	0	
4	0	0	0	0	500	509	0	455	38	0	
5	0	0	0	0	508	508	0	79	38	1	
6	0	0	0	0	510	508	0	0	38	1	
7	0	0	0	0	508	508	0	0	38	1	
8	0	0	0	0	511	508	0	0	38	0	
9	0	0	0	0	531	507	0	0	38	0	
10	0	0	0	0	538	506	0	0	39	0	
11	0	0	0	0	532	507	0	0	38	0	
12	0	0	0	0	533	509	0	0	38	0	
13	0	0	0	0	525	510	0	0	38	1	
14	0	0	0	0	519	508	0	0	38	1	
15	0	0	0	0	501	508	0	0	38	1	
0	0	0	0	0	449	509	0	0	38	1	
1	0	0	0	0	477	509	0	0	38	0	
2	0	0	0	0	486	510	0	0	38	0	
3	0	0	0	0	481	508	0	0	38	0	
4	0	0	0	0	501	508	0	0	38	0	
5	0	0	0	0	494	508	0	0	38	1	
6	0	0	0	0	512	506	0	0	38	1	
7	0	0	0	0	517	509	0	0	38	1	
8	0	0	0	0	520	510	0	0	38	1	
9	0	0	0	0	523	508	0	0	38	0	
10	0	0	0	0	516	509	0	0	38	0	
11	0	0	0	0	496	508	0	0	38	0	
12	0	0	0	0	513	510	0	0	38	0	
13	0	0	0	0	532	508	0	0	38	1	
14	0	0	0	0	539	508	0	0	38	1	
15	0	0	0	0	537	508	0	0	38	1	
0	0	0	0	0	539	507	0	0	38	1	
1	0	0	0	0	533	507	0	0	38	0	
2	0	0	0	0	506	508	0	0	38	0	
3	0	0	0	0	521	508	0	0	38	0	
4	0	0	0	0	515	508	0	0	38	0	
5	0	0	0	0	494	509	0	0	38	0	
6	0	0	0	0	466	509	0	0	38	1	
7	0	0	0	0	433	510	0	0	38	1	
8	0	0	0	0	425	510	0	0	38	1	
9	0	0	0	0	422	509	0	0	38	1	
10	0	0	0	0	480	507	0	0	39	0	
11	0	0	0	0	527	507	0	0	38	0	
12	0	0	0	0	544	507	0	0	38	0	
13	0	0	0	0	547	507	0	0	38	0	
14	0	0	0	0	536	507	0	0	38	1	
15	0	0	0	0	521	508	0	0	38	1	
0	0	0	0	0	519	508	0	0	38	1	
1	0	0	0	0	523	507	0	0	38	1	
2	0	0	0	0	512	507	0	0	39	0	
3	0	0	0	0	516	505	0	0	38	0	
4	0	0	0	0	523	508	0	0	38	0	
5	0	0	0	0	519	509	0	0	38	0	
6	0	0	0	0	523	508	0	0	38	0	
7	0	0	0	0	526	508	0	0	38	1	
8	0	0	0	0	522	505	0	0	38	1	
9	0	0	0	0	531	506	0	0	38	1	
10	0	0	0	0	520	505	0	0	39	0	
11	0	0	0	0	503	506	0	0	38	0	
12	0	0	0	0	495	508	0	0	38	0	
13	0	0	0	0	505	508	0	0	38	0	
14	0	0	0	0	501	507	0	0	38	0	
15	0	0	0	0	500	506	0	0	38	1	
0	0	0	0	0	494	507	0	0	38	1	
1	0	0	0	0	495	506	0	0	38	1	
2	0	0	0	0	498	508	0	0	39	1	
3	0	0	0	0	502	507	0	0	38	0	
4	0	0	0	0	506	508	0	267	38	0	
5	0	0	0	0	509	510	0	587	38	0	
6	0	0	0	0	511	509	0	809	38	0	
7	0	0	0	0	514	509	0	1008	38	1	
8	0	0	0	0	521	508	0	1017	38	1	
9	0	0	0	0	537	507	0	1017	38	1	
10	0	0	0	0	541	508	0	1018	39	1	
11	0	0	0	0	529	508	0	1018	38	1	
12	0	0	0	0	512	508	0	1018	38	0	
13	0	0	0	0	513	508	0	1018	38	0	
14	0	0	0	0	484	508	0	1018	38	0	
15	0	0	0	0	429	508	0	1018	38	1	
0	0	0	0	0	469	508	0	1018	38	1	
1	0	0	0	0	501	508	0	1018	38	1	
2	0	0	0	0	496	508	0	1018	38	1	
3	0	0	0	0	514	508	0	1018	38	1	
4	0	0	0	0	520	507	0	1018	38	0	
5	0	0	0	0	518	510	0	1018	38	0	
6	0	0	0	0	537	509	0	1018	38	0	
7	0	0	0	0	532	507	0	1018	38	0	
8	0	0	0	0	535	509	0	1018	38	1	
9	0	0	0	0	531	509	0	1018	38	1	
10	0	0	0	0	498	510	0	1018	39	1	
11	0	0	0	0	486	508	0	1018	38	1	
12	0	0	0	0	486	508	0	1018	38	1	
13	0	0	0	0	497	509	0	1018	38	0	
14	0	0	0	0	509	510	0	1018	38	0	
15	0	0	0	0	510	510	0	1018	38	0	
0	0	0	0	0	527	508	0	1018	38	1	
1	0	0	0	0	530	509	0	1018	38	1	
2	0	0	0	0	531	509	0	1018	39	1	
3	0	0	0	0	525	510	0	1018	38	1	
4	0	0	0	0	528	510	0	1018	38	1	
5	0	0	0	0	548	510	0	1018	38	0	
6	0	0	0	0	508	510	0	1018	38	0	
7	0	0	0	0	462	511	0	1018	38	0	
8	0	0	0	0	449	511	0	1018	38	1	
9	0	0	0	0	434	511	0	1018	38	1	
10	0	0	0	0	450	511	0	1018	39	1	
11	0	0	0	0	544	511	0	1018	38	1	
12	0	0	0	0	544	509	0	1018	38	1	
13	0	0	0	0	521	508	0	1018	38	0	
14	0	0	0	0	529	507	0	1018	38	0	
15	0	0	0	0	528	508	0	1018	38	0	
0	0	0	0	0	525	508	0	1018	38	0	
1	0	0	0	0	517	508	0	1018	38	1	
2	0	0	0	0	511	508	0	1018	38	1	
3	0	0	0	0	509	508	0	1018	38	1	
4	0	0	0	0	510	508	0	1018	38	1	
5	0	0	0	0	520	507	0	1018	38	0	
6	0	0	0	0	523	507	0	1018	38	0	
7	0	0	0	0	525	507	0	1018	38	0	
8	0	0	0	0	525	505	0	1018	38	0	
9	0	0	0	0	496	505	0	1018	38	1	
10	0	0	0	0	479	508	0	1018	38	1	
11	0	0	0	0	493	509	0	1018	38	1	
12	0	0	0	0	510	511	0	1018	38	1	
13	0	0	0	0	510	511	0	1018	38	1	
14	0	0	0	0	513	511	0	1018	38	0	
15	0	0	0	0	511	511	0	1018	38	0	
0	0	0	0	0	504	510	0	1018	38	0	
1	0	0	0	0	497	510	0	1018	38	1	
2	0	0	0	0	489	510	0	1018	39	1	
3	0	0	0	0	495	509	0	1018	38	1	
4	0	0	0	0	514	509	0	1018	38	1	
5	0	0	0	0	520	509	0	1018	38	0	
6	0	0	0	0	519	508	0	1018	38	0	
7	0	0	0	0	515	506	0	751	38	0	
8	0	0	0	0	504	505	0	485	38	0	
9	0	0	0	0	506	507	0	148	38	0	
10	0	0	0	0	504	507	0	0	38	1	
11	0	0	0	0	507	507	0	0	38	1	
12	0	0	0	0	514	508	0	0	38	1	
13	0	0	0	0	516	508	0	0	38	1	
14	0	0	0	0	516	506	0	0	38	0	
15	0	0	0	0	512	506	0	0	38	0	
0	0	0	0	0	514	506	0	0	38	0	
1	0	0	0	0	504	505	0	0	38	0	
2	0	0	0	0	507	504	0	0	39	1	
3	0	0	0	0	508	505	0	0	38	1	
4	0	0	0	0	511	505	0	0	38	1	
5	0	0	0	0	509	507	0	0	38	1	
6	0	0	0	0	510	509	0	0	38	0	
7	0	0	0	0	510	509	0	201	38	0	
8	0	0	0	0	507	511	0	730	38	0	
9	0	0	0	0	509	510	0	1018	38	0	
10	0	0	0	0	507	508	0	1018	38	0	
11	0	0	0	0	515	508	0	1018	38	1	
12	0	0	0	0	519	510	0	1018	38	1	
13	0	0	0	0	514	510	0	1018	38	1	
14	0	0	0	0	513	512	0	1018	38	0	
15	0	0	0	0	519	510	0	1018	38	0	
0	0	0	0	0	513	509	0	1018	38	0	
1	0	0	0	0	498	511	0	1018	38	0	
2	0	0	0	0	503	510	0	1018	38	0	
3	0	0	0	0	499	509	0	1018	38	1	
4	0	0	0	0	491	510	0	1018	38	1	
5	0	0	0	0	500	509	0	1018	38	1	
6	0	0	0	0	509	509	0	1018	38	1	
7	0	0	0	0	506	507	0	1018	38	0	
8	0	0	0	0	509	509	0	1018	38	0	
9	0	0	0	0	518	510	0	1018	38	0	
10	0	0	0	0	511	508	0	1018	39	0	
11	0	0	0	0	504	510	0	1018	38	1	
12	0	0	0	0	505	509	0	1018	38	1	
13	0	0	0	0	507	508	0	1018	38	1	
14	0	0	0	0	518	508	0	1018	38	1	
15	0	0	0	0	521	507	0	1018	38	0	
0	0	0	0	0	509	508	0	1018	38	0	
1	0	0	0	0	510	508	0	1018	38	0	
2	0	0	0	0	509	509	0	1018	39	0	
3	0	0	0	0	512	509	0	1018	38	0	
4	0	0	0	0	518	508	0	1018	38	1	
5	0	0	0	0	528	507	0	1018	38	1	
6	0	0	0	0	521	508	0	1018	38	1	
7	0	0	0	0	509	506	0	1018	38	0	
8	0	0	0	0	491	507	0	1018	38	0	
9	0	0	0	0	490	509	0	1018	38	0	
10	0	0	0	0	476	510	0	867	39	0	
11	0	0	0	0	506	510	0	607	38	0	
12	0	0	0	0	510	510	0	381	38	0	
13	0	0	0	0	502	510	0	278	38	1	
14	0	0	0	0	513	510	0	183	38	1	
15	0	0	0	0	512	508	0	190	38	1	
0	0	0	0	0	516	507	0	244	38	0	
1	0	0	0	0	516	505	0	93	38	0	
2	0	0	0	0	502	506	0	0	38	0	
3	0	0	0	0	496	505	0	0	38	0	
4	0	0	0	0	519	504	0	0	38	0	
5	0	0	0	0	517	505	0	0	38	1	
6	0	0	0	0	516	505	0	0	38	1	
7	0	0	0	0	523	505	0	0	38	1	
8	0	0	0	0	527	507	0	0	38	0	
9	0	0	0	0	524	506	0	0	38	0	
10	0	0	0	0	523	508	0	0	39	0	
11	0	0	0	0	519	507	0	0	38	0	
12	0	0	0	0	497	508	0	0	38	0	
13	0	0	0	0	459	508	0	0	38	1	
14	0	0	0	0	465	506	0	0	38	1	
15	0	0	0	0	492	505	0	0	38	1	
0	0	0	0	0	511	505	0	0	38	0	
1	0	0	0	0	518	506	0	0	38	0	
2	0	0	0	0	520	506	0	0	38	0	
3	0	0	0	0	513	509	0	0	38	0	
4	0	0	0	0	512	509	0	0	38	0	
5	0	0	0	0	513	510	0	0	38	0	
6	0	0	0	0	505	508	0	0	38	1	
7	0	0	0	0	505	507	0	0	38	1	
8	0	0	0	0	513	507	0	0	38	0	
9	0	0	0	0	519	508	0	0	38	0	
10	0	0	0	0	520	506	0	0	39	0	
11	0	0	0	0	514	506	0	0	38	0	
12	0	0	0	0	511	506	0	0	38	0	
13	0	0	0	0	513	506	0	0	38	0	
14	0	0	0	0	514	504	0	0	38	1	
15	0	0	0	0	513	505	0	0	38	1	
0	0	0	0	0	511	505	0	0	38	1	
1	0	0	0	0	495	506	0	0	38	0	
2	0	0	0	0	507	506	0	0	38	0	
3	0	0	0	0	511	507	0	0	38	0	
4	0	0	0	0	504	507	0	0	38	0	
5	0	0	0	0	508	508	0	0	38	0	
6	0	0	0	0	517	507	0	0	38	1	
7	0	0	0	0	508	507	0	0	38	1	
8	0	0	0	0	506	505	0	0	38	1	
9	0	0	0	0	501	505	0	0	38	0	
10	0	0	0	0	492	505	0	0	38	0	
11	0	0	0	0	496	508	0	0	38	0	
12	0	0	0	0	519	507	0	0	38	0	
13	0	0	0	0	524	505	0	0	38	0	
14	0	0	0	0	525	505	0	0	38	0	
15	0	0	0	0	517	508	0	0	38	1	
0	0	0	0	0	515	508	0	0	38	1	
1	0	0	0	0	507	506	0	0	38	1	
2	0	0	0	0	501	507	0	0	38	0	
3	0	0	0	0	502	507	0	0	38	0	
4	0	0	0	0	505	508	0	0	38	0	
5	0	0	0	0	511	507	0	0	38	0	
6	0	0	0	0	499	507	0	0	38	1	
7	0	0	0	0	504	508	0	0	38	1	
8	0	0	0	0	511	508	0	0	38	1	
9	0	0	0	0	509	507	0	0	38	1	
10	0	0	0	0	511	507	0	217	39	0	
11	0	0	0	0	512	508	0	537	38	0	
12	0	0	0	0	514	508	0	893	38	0	
13	0	0	0	0	518	507	0	1018	38	0	
14	0	0	0	0	504	509	0	1018	38	0	
15	0	0	0	0	505	510	0	1018	38	1	
0	0	0	0	0	513	509	0	1018	38	1	
1	0	0	0	0	516	509	0	1018	38	1	
2	0	0	0	0	536	509	0	1018	38	1	
3	0	0	0	0	532	508	0	1018	38	0	
4	0	0	0	0	515	508	0	1018	38	0	
5	0	0	0	0	494	508	0	1018	38	0	
6	0	0	0	0	484	508	0	1018	38	0	
7	0	0	0	0	473	507	0	1018	38	1	
8	0	0	0	0	493	508	0	1018	38	1	
9	0	0	0	0	509	508	0	1018	38	1	
10	0	0	0	0	508	508	0	1018	38	1	
11	0	0	0	0	511	507	0	1018	38	0	
12	0	0	0	0	508	507	0	1018	38	0	
13	0	0	0	0	501	505	0	1018	38	0	
14	0	0	0	0	511	505	0	1018	38	0	
15	0	0	0	0	518	506	0	1018	38	1	
0	0	0	0	0	514	507	0	1018	38	1	
1	0	0	0	0	513	507	0	1018	38	1	
2	0	0	0	0	509	507	0	1018	38	1	
3	0	0	0	0	509	505	0	1018	38	1	
4	0	0	0	0	515	507	0	1018	38	0	
5	0	0	0	0	514	508	0	1018	38	0	
6	0	0	0	0	512	508	0	1018	38	0	
7	0	0	0	0	511	507	0	1018	38	0	
8	0	0	0	0	515	507	0	1018	38	1	
9	0	0	0	0	510	506	0	1018	38	1	
10	0	0	0	0	514	508	0	1018	39	1	
11	0	0	0	0	516	509	0	1018	38	1	
12	0	0	0	0	513	510	0	1018	38	0	
13	0	0	0	0	509	507	0	1018	38	0	
14	0	0	0	0	507	507	0	1018	38	0	
15	0	0	0	0	508	506	0	1018	38	0	
0	0	0	0	0	505	507	0	1018	38	1	
1	0	0	0	0	501	508	0	1018	38	1	
2	0	0	0	0	515	508	0	1018	38	1	
3	0	0	0	0	516	508	0	1018	38	1	
4	0	0	0	0	508	510	0	1018	38	0	
5	0	0	0	0	490	509	0	1018	38	0	
6	0	0	0	0	491	510	0	1018	38	0	
7	0	0	0	0	499	508	0	1018	38	0	
8	0	0	0	0	499	508	0	1018	38	1	
9	0	0	0	0	520	508	0	1018	38	1	
10	0	0	0	0	527	508	0	1018	38	1	
11	0	0	0	0	515	509	0	1018	38	1	
12	0	0	0	0	504	509	0	1018	38	1	
13	0	0	0	0	508	508	0	1018	38	0	
14	0	0	0	0	513	508	0	1018	38	0	
15	0	0	0	0	518	510	0	1018	38	0	
0	0	0	0	0	515	510	0	1018	38	1	
1	0	0	0	0	512	509	0	1018	38	1	
2	0	0	0	0	518	510	0	1018	39	1	
3	0	0	0	0	519	508	0	1018	38	1	
4	0	0	0	0	514	507	0	1018	38	1	
5	0	0	0	0	492	507	0	1018	38	0	
6	0	0	0	0	501	507	0	1018	38	0	
7	0	0	0	0	507	506	0	1018	38	0	
8	0	0	0	0	499	507	0	1018	38	1	
9	0	0	0	0	504	507	0	1018	38	1	
10	0	0	0	0	510	507	0	1018	38	1	
11	0	0	0	0	504	508	0	1018	38	1	
12	0	0	0	0	510	508	0	1018	38	1	
13	0	0	0	0	516	509	0	1018	38	0	
14	0	0	0	0	518	510	0	1018	38	0	
15	0	0	0	0	511	510	0	1018	38	0	
0	0	0	0	0	510	510	0	1018	38	0	
1	0	0	0	0	510	509	0	1018	38	1	
2	0	0	0	0	509	508	0	1018	39	1	
3	0	0	0	0	505	508	0	1018	38	1	
4	0	0	0	0	504	507	0	1018	38	1	
5	0	0	0	0	512	507	0	1017	38	1	
6	0	0	0	0	511	506	0	830	38	0	
7	0	0	0	0	509	508	0	700	38	0	
8	0	0	0	0	511	505	0	679	38	0	
9	0	0	0	0	508	507	0	496	38	1	
10	0	0	0	0	512	507	0	330	39	1	
11	0	0	0	0	515	505	0	245	38	1	
12	0	0	0	0	523	508	0	195	38	1	
13	0	0	0	0	529	507	0	180	38	1	
14	0	0	0	0	521	507	0	200	38	0	
15	0	0	0	0	514	505	0	169	38	0	
0	0	0	0	0	499	505	0	139	38	0	
1	0	0	0	0	494	506	0	95	38	0	
2	0	0	0	0	490	505	0	0	38	1	
3	0	0	0	0	487	507	0	0	38	1	
4	0	0	0	0	494	506	0	0	38	1	
5	0	0	0	0	505	504	0	0	38	1	
6	0	0	0	0	513	504	0	0	38	0	
7	0	0	0	0	512	504	0	0	38	0	
8	0	0	0	0	495	504	0	407	38	0	
9	0	0	0	0	476	503	0	656	38	0	
10	0	0	0	0	495	503	0	856	39	1	
11	0	0	0	0	506	504	0	995	38	1	
12	0	0	0	0	522	504	0	1018	38	1	
13	0	0	0	0	525	504	0	1018	38	1	
14	0	0	0	0	510	505	0	1017	38	1	
15	0	0	0	0	509	504	0	1017	38	0	
0	0	0	0	0	510	504	0	699	38	0	
1	0	0	0	0	516	506	0	368	38	0	
2	0	0	0	0	522	506	0	119	39	1	
3	0	0	0	0	520	507	0	0	38	1	
4	0	0	0	0	518	507	0	0	38	1	
5	0	0	0	0	516	508	0	0	38	1	
6	0	0	0	0	514	507	0	0	38	1	
7	0	0	0	0	509	508	0	0	38	0	
8	0	0	0	0	509	508	0	0	38	0	
9	0	0	0	0	508	509	0	0	38	0	
10	0	0	0	0	512	509	0	0	38	0	
11	0	0	0	0	516	508	0	0	38	1	
12	0	0	0	0	516	509	0	0	38	1	
13	0	0	0	0	512	508	0	0	38	1	
14	0	0	0	0	512	507	0	0	38	1	
15	0	0	0	0	511	508	0	0	38	0	
0	0	0	0	0	508	507	0	0	38	0	
1	0	0	0	0	501	507	0	0	38	0	
2	0	0	0	0	506	508	0	0	39	0	
3	0	0	0	0	504	509	0	0	38	1	
4	0	0	0	0	507	509	0	0	38	1	
5	0	0	0	0	485	508	0	0	38	1	
6	0	0	0	0	491	508	0	0	38	1	
7	0	0	0	0	505	507	0	0	38	0	
8	0	0	0	0	505	507	0	0	38	0	
9	0	0	0	0	512	507	0	0	38	0	
10	0	0	0	0	514	508	0	0	39	0	
11	0	0	0	0	510	507	0	0	38	1	
12	0	0	0	0	512	508	0	0	38	1	
13	0	0	0	0	515	508	0	0	38	1	
14	0	0	0	0	501	507	0	0	38	1	
15	0	0	0	0	504	507	0	0	38	1	
0	0	0	0	0	514	508	0	0	38	0	
1	0	0	0	0	511	509	0	0	38	0	
2	0	0	0	0	517	509	0	0	39	0	
3	0	0	0	0	518	510	0	0	38	0	
4	0	0	0	0	523	509	0	0	38	1	
5	0	0	0	0	523	509	0	0	38	1	
6	0	0	0	0	519	507	0	0	38	1	
7	0	0	0	0	507	507	0	0	38	1	
8	0	0	0	0	496	507	0	0	38	0	
9	0	0	0	0	492	508	0	0	38	0	
10	0	0	0	0	491	508	0	0	38	0	
11	0	0	0	0	494	508	0	0	38	0	
12	0	0	0	0	508	508	0	0	38	0	
13	0	0	0	0	514	508	0	0	38	1	
14	0	0	0	0	519	508	0	0	38	1	
15	0	0	0	0	519	509	0	0	38	1	
0	0	0	0	0	518	508	0	0	38	0	
1	0	0	0	0	510	508	0	0	38	0	
2	0	0	0	0	509	509	0	0	38	0	
3	0	0	0	0	499	509	0	0	38	0	
4	0	0	0	0	499	508	0	0	38	0	
5	0	0	0	0	508	509	0	0	38	1	
6	0	0	0	0	516	508	0	0	38	1	
7	0	0	0	0	515	507	0	0	38	1	
8	0	0	0	0	521	507	0	0	38	1	
9	0	0	0	0	533	506	0	0	38	0	
10	0	0	0	0	535	506	0	0	39	0	
11	0	0	0	0	530	508	0	0	38	0	
12	0	0	0	0	501	508	0	0	38	1	
13	0	0	0	0	475	509	0	0	38	0	
14	0	0	0	0	454	508	0	0	38	1	
15	0	0	0	0	479	508	0	0	38	1	
0	0	0	0	0	471	509	0	0	38	1	
1	0	0	0	0	481	509	0	0	38	0	
2	0	0	0	0	522	510	0	0	39	0	
3	0	0	0	0	537	509	0	0	38	0	
4	0	0	0	0	529	508	0	0	38	0	
5	0	0	0	0	526	508	0	0	38	0	
6	0	0	0	0	523	508	0	0	38	1	
7	0	0	0	0	513	509	0	0	38	1	
8	0	0	0	0	508	510	0	0	38	1	
9	0	0	0	0	503	509	0	0	38	0	
10	0	0	0	0	507	509	0	0	38	0	
11	0	0	0	0	520	508	0	0	38	0	
12	0	0	0	0	529	509	0	0	38	0	
13	0	0	0	0	534	509	0	0	38	0	
14	0	0	0	0	538	508	0	0	38	1	
15	0	0	0	0	515	507	0	0	38	1	
0	0	0	0	0	500	507	0	0	38	1	
1	0	0	0	0	466	509	0	0	38	0	
2	0	0	0	0	461	510	0	0	38	0	
3	0	0	0	0	493	507	0	0	38	0	
4	0	0	0	0	507	507	0	0	38	0	
5	0	0	0	0	511	505	0	0	38	0	
6	0	0	0	0	516	505	0	0	38	0	
7	0	0	0	0	512	507	0	0	38	1	
8	0	0	0	0	503	506	0	0	38	1	
9	0	0	0	0	509	507	0	0	38	1	
10	0	0	0	0	519	507	0	0	38	0	
11	0	0	0	0	507	508	0	0	38	0	
12	0	0	0	0	517	507	0	0	38	0	
13	0	0	0	0	520	504	0	230	38	0	
14	0	0	0	0	519	505	0	402	38	0	
15	0	0	0	0	519	507	0	566	38	1	
0	0	0	0	0	514	508	0	704	38	1	
1	0	0	0	0	515	508	0	622	38	1	
2	0	0	0	0	511	508	0	569	39	0	
3	0	0	0	0	505	508	0	558	38	0	
4	0	0	0	0	501	505	0	554	38	0	
5	0	0	0	0	504	506	0	552	38	0	
6	0	0	0	0	489	508	0	561	38	0	
7	0	0	0	0	503	507	0	624	38	1	
8	0	0	0	0	512	507	0	797	38	1	
9	0	0	0	0	520	508	0	972	38	1	
10	0	0	0	0	526	508	0	960	38	0	
11	0	0	0	0	534	511	0	961	38	0	
12	0	0	0	0	533	511	0	985	38	0	
13	0	0	0	0	508	511	0	1000	38	0	
14	0	0	0	0	496	508	0	1017	38	0	
15	0	0	0	0	476	506	0	845	38	1	
0	0	0	0	0	473	507	0	596	38	1	
1	0	0	0	0	501	507	0	151	38	1	
2	0	0	0	0	507	506	0	0	39	1	
3	0	0	0	0	515	507	0	0	38	0	
4	0	0	0	0	517	508	0	0	38	0	
5	0	0	0	0	519	508	0	0	38	0	
6	0	0	0	0	513	508	0	0	38	0	
7	0	0	0	0	514	508	0	0	38	1	
8	0	0	0	0	502	509	0	0	38	1	
9	0	0	0	0	505	509	0	0	38	1	
10	0	0	0	0	520	508	0	0	38	1	
11	0	0	0	0	522	507	0	0	38	1	
12	0	0	0	0	511	505	0	0	38	0	
13	0	0	0	0	510	506	0	0	38	0	
14	0	0	0	0	515	506	0	0	38	0	
15	0	0	0	0	517	506	0	0	38	0	
0	0	0	0	0	519	507	0	0	38	1	
1	0	0	0	0	502	506	0	0	38	1	
2	0	0	0	0	503	507	0	0	39	1	
3	0	0	0	0	497	507	0	0	38	1	
4	0	0	0	0	503	508	0	0	38	0	
5	0	0	0	0	504	507	0	0	38	0	
6	0	0	0	0	509	507	0	0	38	0	
7	0	0	0	0	508	507	0	0	38	0	
8	0	0	0	0	489	508	0	0	38	1	
9	0	0	0	0	482	510	0	0	38	1	
10	0	0	0	0	500	509	0	0	39	1	
11	0	0	0	0	510	510	0	424	38	1	
12	0	0	0	0	504	509	0	736	38	0	
13	0	0	0	0	498	511	0	888	38	0	
14	0	0	0	0	510	510	0	1017	38	0	
15	0	0	0	0	518	512	0	1017	38	0	
0	0	0	0	0	523	511	0	1018	38	1	
1	0	0	0	0	525	510	0	1018	38	1	
2	0	0	0	0	520	509	0	1018	39	1	
3	0	0	0	0	515	510	0	912	38	1	
4	0	0	0	0	519	508	0	812	38	1	
5	0	0	0	0	512	506	0	776	38	0	
6	0	0	0	0	508	505	0	766	38	0	
7	0	0	0	0	508	507	0	687	38	0	
8	0	0	0	0	504	505	0	634	38	1	
9	0	0	0	0	506	506	0	430	38	1	
10	0	0	0	0	510	506	0	217	39	1	
11	0	0	0	0	513	506	0	50	38	1	
12	0	0	0	0	519	507	0	0	38	1	
13	0	0	0	0	519	507	0	0	38	1	
14	0	0	0	0	516	505	0	0	38	0	
15	0	0	0	0	518	504	0	0	38	0	
0	0	0	0	0	515	506	0	0	38	0	
1	0	0	0	0	510	506	0	0	38	1	
2	0	0	0	0	506	504	0	0	38	1	
3	0	0	0	0	515	505	0	0	38	1	
4	0	0	0	0	530	505	0	0	38	1	
5	0	0	0	0	523	506	0	0	38	0	
6	0	0	0	0	493	506	0	0	38	0	
7	0	0	0	0	490	507	0	0	38	0	
8	0	0	0	0	491	508	0	0	38	0	
9	0	0	0	0	478	507	0	0	38	1	
10	0	0	0	0	485	506	0	0	38	1	
11	0	0	0	0	496	506	0	0	38	1	
12	0	0	0	0	507	507	0	0	38	1	
13	0	0	0	0	501	507	0	0	38	1	
14	0	0	0	0	502	506	0	0	38	0	
15	0	0	0	0	512	507	0	0	38	0	
0	0	0	0	0	511	506	0	0	38	0	
1	0	0	0	0	519	508	0	0	38	1	
2	0	0	0	0	523	507	0	0	39	1	
3	0	0	0	0	526	507	0	0	38	1	
4	0	0	0	0	514	505	0	0	38	1	
5	0	0	0	0	513	504	0	0	38	1	
6	0	0	0	0	503	505	0	0	38	0	
7	0	0	0	0	506	506	0	0	38	0	
8	0	0	0	0	505	507	0	0	38	0	
9	0	0	0	0	508	506	0	0	38	0	
10	0	0	0	0	505	507	0	0	39	1	
11	0	0	0	0	502	508	0	187	38	1	
12	0	0	0	0	509	508	0	215	38	1	
13	0	0	0	0	511	508	0	84	38	1	
14	0	0	0	0	513	506	0	0	38	1	
15	0	0	0	0	516	507	0	0	38	0	
0	0	0	0	0	513	505	0	0	38	0	
1	0	0	0	0	506	507	0	0	38	0	
2	0	0	0	0	510	507	0	0	38	1	
3	0	0	0	0	515	508	0	0	38	1	
4	0	0	0	0	516	508	0	0	38	1	
5	0	0	0	0	514	507	0	0	38	1	
6	0	0	0	0	509	507	0	0	38	1	
7	0	0	0	0	509	508	0	0	38	0	
8	0	0	0	0	513	510	0	0	38	0	
9	0	0	0	0	517	509	0	0	38	0	
10	0	0	0	0	510	510	0	0	38	1	
11	0	0	0	0	509	510	0	0	38	1	
12	0	0	0	0	508	510	0	0	38	1	
13	0	0	0	0	501	508	0	0	38	1	
14	0	0	0	0	503	507	0	0	38	1	
15	0	0	0	0	487	508	0	0	38	0	
0	0	0	0	0	507	506	0	0	38	0	
1	0	0	0	0	512	505	0	0	38	0	
2	0	0	0	0	510	504	0	0	38	0	
3	0	0	0	0	524	505	0	0	38	1	
4	0	0	0	0	522	506	0	0	38	1	
5	0	0	0	0	512	506	0	0	38	1	
6	0	0	0	0	504	506	0	0	38	1	
7	0	0	0	0	499	504	0	0	38	0	
8	0	0	0	0	479	504	0	0	38	0	
9	0	0	0	0	477	504	0	0	38	0	
10	0	0	0	0	502	504	0	0	39	0	
11	0	0	0	0	519	504	0	0	38	1	
12	0	0	0	0	520	505	0	0	38	1	
13	0	0	0	0	521	505	0	0	38	1	
14	0	0	0	0	515	506	0	0	38	1	
15	0	0	0	0	517	508	0	0	38	1	
0	0	0	0	0	523	509	0	0	38	0	
1	0	0	0	0	519	510	0	318	38	0	
2	0	0	0	0	520	509	0	608	39	0	
3	0	0	0	0	525	507	0	802	38	0	
4	0	0	0	0	508	507	0	907	38	1	
5	0	0	0	0	480	507	0	1017	38	1	
6	0	0	0	0	497	507	0	1018	38	1	
7	0	0	0	0	523	507	0	1018	38	1	
8	0	0	0	0	524	505	0	1018	38	0	
9	0	0	0	0	524	504	0	1018	38	0	
10	0	0	0	0	494	505	0	1018	39	0	
11	0	0	0	0	470	506	0	1018	38	0	
12	0	0	0	0	460	505	0	1018	38	1	
13	0	0	0	0	479	505	0	1018	38	1	
14	0	0	0	0	501	506	0	1018	38	1	
15	0	0	0	0	519	507	0	1018	38	1	
0	0	0	0	0	522	507	0	1018	38	0	
1	0	0	0	0	531	506	0	1018	38	0	
2	0	0	0	0	530	507	0	1018	38	0	
3	0	0	0	0	529	508	0	1018	38	0	
4	0	0	0	0	527	509	0	1018	38	0	
5	0	0	0	0	533	509	0	1018	38	1	
6	0	0	0	0	530	511	0	1018	38	1	
7	0	0	0	0	499	509	0	1018	38	1	
8	0	0	0	0	498	510	0	1018	38	1	
9	0	0	0	0	486	509	0	1018	38	0	
10	0	0	0	0	484	509	0	1018	38	0	
11	0	0	0	0	494	509	0	1018	38	0	
12	0	0	0	0	494	510	0	1018	38	0	
13	0	0	0	0	510	510	0	1018	38	1	
14	0	0	0	0	513	510	0	1018	38	1	
15	0	0	0	0	519	509	0	1018	38	1	
0	0	0	0	0	535	508	0	1018	38	1	
1	0	0	0	0	532	508	0	1018	38	0	
2	0	0	0	0	525	509	0	1018	39	0	
3	0	0	0	0	518	508	0	1018	38	0	
4	0	0	0	0	509	508	0	1018	38	0	
5	0	0	0	0	503	509	0	1018	38	1	
6	0	0	0	0	505	507	0	1018	38	1	
7	0	0	0	0	511	506	0	1018	38	1	
8	0	0	0	0	510	506	0	1018	38	1	
9	0	0	0	0	514	508	0	1018	38	0	
10	0	0	0	0	519	508	0	1018	39	0	
11	0	0	0	0	523	509	0	1018	38	0	
12	0	0	0	0	516	509	0	1018	38	0	
13	0	0	0	0	502	509	0	1018	38	0	
14	0	0	0	0	502	509	0	1018	38	1	
15	0	0	0	0	507	510	0	1018	38	1	
0	0	0	0	0	465	511	0	1018	38	1	
1	0	0	0	0	472	509	0	1018	38	0	
2	0	0	0	0	492	508	0	1018	39	0	
3	0	0	0	0	502	509	0	1018	38	0	
4	0	0	0	0	517	509	0	1018	38	0	
5	0	0	0	0	521	508	0	1018	38	0	
6	0	0	0	0	523	509	0	1018	38	1	
7	0	0	0	0	521	509	0	1018	38	1	
8	0	0	0	0	518	508	0	1018	38	1	
9	0	0	0	0	512	508	0	1018	38	1	
10	0	0	0	0	507	509	0	1018	38	0	
11	0	0	0	0	512	508	0	1018	38	0	
12	0	0	0	0	512	506	0	1018	38	0	
13	0	0	0	0	511	505	0	1018	38	0	
14	0	0	0	0	511	504	0	1018	38	0	
15	0	0	0	0	520	504	0	1018	38	1	
0	0	0	0	0	511	504	0	1018	38	1	
1	0	0	0	0	509	506	0	1018	38	1	
2	0	0	0	0	506	507	0	1018	39	0	
3	0	0	0	0	505	508	0	1018	38	0	
4	0	0	0	0	501	508	0	1018	38	0	
5	0	0	0	0	509	508	0	1018	38	0	
6	0	0	0	0	505	508	0	1018	38	0	
7	0	0	0	0	508	510	0	1018	38	1	
8	0	0	0	0	520	510	0	1017	38	1	
9	0	0	0	0	516	510	0	1018	38	1	
10	0	0	0	0	509	510	0	999	39	0	
11	0	0	0	0	504	510	0	1018	38	0	
12	0	0	0	0	500	509	0	1018	38	0	
13	0	0	0	0	507	510	0	1017	38	0	
14	0	0	0	0	500	510	0	1018	38	0	
15	0	0	0	0	506	510	0	1017	38	1	
0	0	0	0	0	513	511	0	1018	38	1	
1	0	0	0	0	524	511	0	1018	38	1	
2	0	0	0	0	519	512	0	1017	38	1	
3	0	0	0	0	509	512	0	792	38	0	
4	0	0	0	0	504	512	0	612	38	0	
5	0	0	0	0	500	511	0	424	38	0	
6	0	0	0	0	488	511	0	305	38	0	
7	0	0	0	0	514	510	0	303	38	1	
8	0	0	0	0	523	510	0	71	38	1	
9	0	0	0	0	517	511	0	0	38	1	
10	0	0	0	0	512	509	0	0	39	1	
11	0	0	0	0	504	509	0	0	38	0	
12	0	0	0	0	500	508	0	0	38	0	
13	0	0	0	0	493	508	0	0	38	0	
14	0	0	0	0	499	509	0	0	38	0	
15	0	0	0	0	513	508	0	0	38	0	
0	0	0	0	0	512	509	0	0	38	1	
1	0	0	0	0	506	508	0	0	38	1	
2	0	0	0	0	512	510	0	0	38	1	
3	0	0	0	0	520	510	0	0	38	1	
4	0	0	0	0	517	509	0	0	38	0	
5	0	0	0	0	516	509	0	0	38	0	
6	0	0	0	0	515	509	0	0	38	0	
7	0	0	0	0	496	509	0	0	38	0	
8	0	0	0	0	498	511	0	0	38	1	
9	0	0	0	0	503	511	0	0	38	1	
10	0	0	0	0	505	509	0	0	39	1	
11	0	0	0	0	517	508	0	0	38	1	
12	0	0	0	0	511	507	0	0	38	0	
13	0	0	0	0	513	506	0	0	38	0	
14	0	0	0	0	516	506	0	0	38	0	
15	0	0	0	0	510	506	0	0	38	0	
0	0	0	0	0	508	507	0	0	38	0	
1	0	0	0	0	508	504	0	0	38	1	
2	0	0	0	0	512	505	0	221	39	1	
3	0	0	0	0	512	505	0	313	38	1	
4	0	0	0	0	512	504	0	348	38	0	
5	0	0	0	0	519	506	0	347	38	0	
6	0	0	0	0	519	508	0	365	38	0	
7	0	0	0	0	509	508	0	427	38	0	
8	0	0	0	0	511	505	0	649	38	0	
9	0	0	0	0	509	505	0	958	38	1	
10	0	0	0	0	491	506	0	1018	39	1	
11	0	0	0	0	502	507	0	1018	38	1	
12	0	0	0	0	508	507	0	1018	38	1	
13	0	0	0	0	503	507	0	1018	38	0	
14	0	0	0	0	487	507	0	1018	38	0	
15	0	0	0	0	512	507	0	1018	38	0	
0	0	0	0	0	535	507	0	1018	38	0	
1	0	0	0	0	540	508	0	1018	38	1	
2	0	0	0	0	514	506	0	1018	39	1	
3	0	0	0	0	508	507	0	1017	38	1	
4	0	0	0	0	503	507	0	869	38	1	
5	0	0	0	0	493	507	0	687	38	0	
6	0	0	0	0	515	507	0	393	38	0	
7	0	0	0	0	491	507	0	57	38	0	
8	0	0	0	0	494	508	0	0	38	0	
9	0	0	0	0	507	507	0	0	38	1	
10	0	0	0	0	499	505	0	0	39	1	
11	0	0	0	0	498	504	0	0	38	1	
12	0	0	0	0	497	504	0	0	38	1	
13	0	0	0	0	489	505	0	0	38	1	
14	0	0	0	0	509	505	0	0	38	0	
15	0	0	0	0	513	503	0	0	38	0	
0	0	0	0	0	521	502	0	0	38	0	
1	0	0	0	0	522	501	0	0	38	1	
2	0	0	0	0	515	502	0	0	38	1	
3	0	0	0	0	518	503	0	0	38	1	
4	0	0	0	0	523	506	0	0	38	1	
5	0	0	0	0	516	506	0	0	38	1	
6	0	0	0	0	517	507	0	0	38	0	
7	0	0	0	0	512	508	0	0	38	0	
8	0	0	0	0	505	508	0	0	38	0	
9	0	0	0	0	509	508	0	0	38	0	
10	0	0	0	0	516	509	0	0	39	1	
11	0	0	0	0	529	508	0	0	38	1	
12	0	0	0	0	533	509	0	199	38	1	
13	0	0	0	0	527	507	0	442	38	1	
14	0	0	0	0	519	507	0	629	38	0	
15	0	0	0	0	502	507	0	847	38	0	
0	0	0	0	0	478	508	0	1018	38	0	
1	0	0	0	0	508	507	0	1017	38	0	
2	0	0	0	0	480	508	0	1018	39	1	
3	0	0	0	0	464	509	0	1018	38	1	
4	0	0	0	0	475	508	0	1018	38	1	
5	0	0	0	0	500	508	0	1018	38	1	
6	0	0	0	0	515	506	0	1018	38	1	
7	0	0	0	0	520	507	0	1018	38	0	
8	0	0	0	0	515	507	0	1018	38	0	
9	0	0	0	0	519	507	0	1018	38	0	
10	0	0	0	0	526	506	0	1018	38	1	
11	0	0	0	0	526	508	0	1018	38	1	
12	0	0	0	0	523	509	0	1018	38	1	
13	0	0	0	0	515	508	0	1018	38	1	
14	0	0	0	0	514	509	0	1018	38	1	
15	0	0	0	0	515	509	0	1018	38	0	
0	0	0	0	0	508	508	0	1018	38	0	
1	0	0	0	0	507	508	0	1018	38	0	
2	0	0	0	0	506	511	0	1018	38	1	
3	0	0	0	0	507	508	0	1018	38	1	
4	0	0	0	0	502	508	0	1018	38	1	
5	0	0	0	0	496	507	0	1018	38	1	
6	0	0	0	0	504	507	0	1018	38	1	
