# OpenSignals Text File Format. Version 1
# {"98:D3:61:FD:78:31": {"position": 0, "device": "bitalino_rev", "device name": "98:D3:61:FD:78:31", "device connection": "BTH98:D3:61:FD:78:31", "sampling rate": 1000, "resolution": [4, 1, 1, 1, 1, 10, 10, 10, 10, 6, 6], "firmware version": 1282, "comments": "", "keywords": "", "mode": 0, "sync interval": 2, "date": "2024-4-12", "time": "10:28:28.454", "channels": [1, 2, 3, 4, 5, 6], "sensor": ["RAW", "RAW", "RAW", "RAW", "RAW", "RAW"], "label": ["A1", "A2", "A3", "A4", "A5", "A6"], "column": ["nSeq", "I1", "I2", "O1", "O2", "A1", "A2", "A3", "A4", "A5", "A6"], "special": [{}, {}, {}, {}, {}, {}], "digital IO": [0, 0, 1, 1], "convertedValues": 0}}
# EndOfHeader
0	0	0	0	0	507	508	0	1018	36	0	
1	0	0	0	0	508	508	0	1018	36	0	
2	0	0	0	0	510	508	0	1018	36	0	
3	0	0	0	0	506	507	0	1018	36	0	
4	0	0	0	0	508	506	0	1018	36	0	
5	0	0	0	0	510	505	0	1018	36	0	
6	0	0	0	0	511	504	0	1018	36	0	
7	0	0	0	0	512	504	0	1018	36	0	
8	0	0	0	0	510	505	0	1018	36	0	
9	0	0	0	0	508	507	0	1018	36	0	
10	0	0	0	0	507	507	0	1018	36	0	
11	0	0	0	0	509	507	0	1018	36	0	
12	0	0	0	0	510	507	0	1018	36	0	
13	0	0	0	0	509	508	0	1018	36	0	
14	0	0	0	0	511	507	0	1018	36	0	
15	0	0	0	0	508	504	0	1018	36	0	
0	0	0	0	0	510	506	0	1018	36	0	
1	0	0	0	0	509	505	0	1018	36	0	
2	0	0	0	0	507	503	0	1018	36	0	
3	0	0	0	0	508	504	0	1018	36	0	
4	0	0	0	0	507	505	0	1017	36	0	
5	0	0	0	0	507	506	0	1018	36	0	
6	0	0	0	0	511	504	0	1018	36	0	
7	0	0	0	0	509	504	0	1018	36	0	
8	0	0	0	0	510	503	0	1018	36	0	
9	0	0	0	0	512	503	0	1018	36	0	
10	0	0	0	0	508	506	0	1018	36	0	
11	0	0	0	0	509	506	0	1018	36	0	
12	0	0	0	0	509	507	0	1018	36	0	
13	0	0	0	0	508	508	0	1018	36	0	
14	0	0	0	0	510	509	0	1018	36	0	
15	0	0	0	0	511	510	0	1018	36	0	
0	0	0	0	0	510	510	0	1018	36	0	
1	0	0	0	0	508	507	0	1018	36	0	
2	0	0	0	0	509	507	0	1018	36	0	
3	0	0	0	0	508	508	0	1018	36	0	
4	0	0	0	0	507	508	0	1018	36	0	
5	0	0	0	0	508	508	0	1018	36	0	
6	0	0	0	0	507	509	0	1018	36	0	
7	0	0	0	0	510	509	0	1018	36	0	
8	0	0	0	0	508	507	0	1018	36	0	
9	0	0	0	0	510	507	0	1018	36	0	
10	0	0	0	0	511	507	0	1018	36	0	
11	0	0	0	0	511	509	0	1018	36	0	
12	0	0	0	0	509	510	0	1018	36	0	
13	0	0	0	0	507	507	0	1018	36	0	
14	0	0	0	0	507	509	0	1018	36	0	
15	0	0	0	0	509	507	0	1018	36	0	
0	0	0	0	0	509	507	0	1018	36	0	
1	0	0	0	0	509	508	0	1018	36	0	
2	0	0	0	0	509	508	0	1018	36	0	
3	0	0	0	0	508	509	0	1018	36	0	
4	0	0	0	0	510	510	0	1018	36	0	
5	0	0	0	0	505	510	0	1018	36	0	
6	0	0	0	0	510	510	0	1018	36	0	
7	0	0	0	0	509	508	0	1018	36	0	
8	0	0	0	0	511	510	0	1018	36	0	
9	0	0	0	0	512	509	0	1018	36	0	
10	0	0	0	0	511	509	0	1018	36	0	
11	0	0	0	0	510	510	0	1018	36	0	
12	0	0	0	0	509	509	0	1018	36	0	
13	0	0	0	0	510	510	0	1018	36	0	
14	0	0	0	0	511	510	0	1018	36	0	
15	0	0	0	0	511	511	0	1018	36	0	
0	0	0	0	0	512	510	0	1018	36	0	
1	0	0	0	0	512	509	0	1018	36	0	
2	0	0	0	0	509	510	0	1018	36	0	
3	0	0	0	0	511	511	0	1018	36	0	
4	0	0	0	0	507	509	0	1018	36	0	
5	0	0	0	0	506	510	0	1018	36	0	
6	0	0	0	0	505	510	0	1018	36	0	
7	0	0	0	0	508	509	0	1018	36	0	
8	0	0	0	0	509	509	0	1018	36	0	
9	0	0	0	0	507	509	0	1018	36	0	
10	0	0	0	0	507	511	0	1018	36	0	
11	0	0	0	0	508	510	0	1018	36	0	
12	0	0	0	0	511	510	0	1018	36	0	
13	0	0	0	0	509	512	0	1018	36	0	
14	0	0	0	0	507	512	0	1018	36	0	
15	0	0	0	0	511	511	0	1018	36	0	
0	0	0	0	0	510	508	0	1018	36	0	
1	0	0	0	0	511	511	0	1018	36	0	
2	0	0	0	0	511	510	0	1018	36	0	
3	0	0	0	0	511	508	0	1018	36	0	
4	0	0	0	0	509	509	0	1018	36	1	
5	0	0	0	0	509	509	0	1018	36	0	
6	0	0	0	0	509	508	0	1018	36	0	
7	0	0	0	0	509	508	0	1018	36	0	
8	0	0	0	0	507	508	0	1018	36	0	
9	0	0	0	0	511	508	0	1018	36	0	
10	0	0	0	0	508	508	0	1018	36	0	
11	0	0	0	0	509	508	0	1018	36	0	
12	0	0	0	0	508	508	0	1018	36	0	
13	0	0	0	0	508	508	0	1018	36	0	
14	0	0	0	0	511	510	0	1018	36	0	
15	0	0	0	0	509	509	0	1018	36	0	
0	0	0	0	0	512	510	0	1018	36	0	
1	0	0	0	0	510	510	0	1018	36	0	
2	0	0	0	0	510	507	0	1018	36	0	
3	0	0	0	0	510	508	0	1018	36	0	
4	0	0	0	0	508	507	0	1018	36	0	
5	0	0	0	0	506	507	0	1017	36	0	
6	0	0	0	0	507	508	0	691	36	0	
7	0	0	0	0	507	510	0	375	36	0	
8	0	0	0	0	507	511	0	123	36	0	
9	0	0	0	0	509	509	0	73	36	0	
10	0	0	0	0	510	509	0	140	36	0	
11	0	0	0	0	509	511	0	216	36	0	
12	0	0	0	0	509	510	0	413	36	0	
13	0	0	0	0	509	510	0	469	36	0	
14	0	0	0	0	510	510	0	600	36	0	
15	0	0	0	0	510	508	0	720	36	0	
0	0	0	0	0	512	508	0	743	36	0	
1	0	0	0	0	510	507	0	846	36	0	
2	0	0	0	0	508	507	0	834	36	0	
3	0	0	0	0	510	509	0	882	36	0	
4	0	0	0	0	508	507	0	1009	36	0	
5	0	0	0	0	510	506	0	1017	36	0	
6	0	0	0	0	508	507	0	1018	36	0	
7	0	0	0	0	510	508	0	1018	36	0	
8	0	0	0	0	508	507	0	1018	36	0	
9	0	0	0	0	511	506	0	1018	36	0	
10	0	0	0	0	511	508	0	1018	36	0	
11	0	0	0	0	511	509	0	1018	36	0	
12	0	0	0	0	508	509	0	1018	36	0	
13	0	0	0	0	509	508	0	1017	36	0	
14	0	0	0	0	508	508	0	714	36	0	
15	0	0	0	0	507	507	0	384	36	0	
0	0	0	0	0	508	507	0	0	36	0	
1	0	0	0	0	509	507	0	0	36	0	
2	0	0	0	0	510	506	0	0	36	0	
3	0	0	0	0	508	505	0	0	36	0	
4	0	0	0	0	508	506	0	0	36	0	
5	0	0	0	0	508	506	0	0	36	0	
6	0	0	0	0	510	508	0	0	36	0	
7	0	0	0	0	507	508	0	0	36	0	
8	0	0	0	0	506	507	0	0	36	0	
9	0	0	0	0	510	510	0	0	36	0	
10	0	0	0	0	508	510	0	0	36	0	
11	0	0	0	0	509	511	0	0	36	0	
12	0	0	0	0	509	508	0	0	36	0	
13	0	0	0	0	513	509	0	0	36	0	
14	0	0	0	0	511	508	0	0	36	0	
15	0	0	0	0	508	508	0	0	36	0	
0	0	0	0	0	510	508	0	0	36	0	
1	0	0	0	0	510	508	0	0	36	0	
2	0	0	0	0	509	508	0	0	36	0	
3	0	0	0	0	511	507	0	0	36	0	
4	0	0	0	0	511	508	0	0	36	0	
5	0	0	0	0	508	508	0	0	36	0	
6	0	0	0	0	508	507	0	0	36	0	
7	0	0	0	0	507	506	0	0	36	0	
8	0	0	0	0	509	507	0	0	36	0	
9	0	0	0	0	507	509	0	0	36	0	
10	0	0	0	0	508	508	0	0	36	0	
11	0	0	0	0	508	510	0	0	36	0	
12	0	0	0	0	509	508	0	0	36	0	
13	0	0	0	0	511	508	0	0	36	0	
14	0	0	0	0	510	505	0	0	36	0	
15	0	0	0	0	511	507	0	0	36	0	
0	0	0	0	0	509	505	0	0	36	0	
1	0	0	0	0	509	507	0	0	36	0	
2	0	0	0	0	511	507	0	0	36	0	
3	0	0	0	0	508	507	0	0	36	0	
4	0	0	0	0	510	508	0	0	36	0	
5	0	0	0	0	509	508	0	0	36	0	
6	0	0	0	0	509	507	0	0	36	0	
7	0	0	0	0	509	508	0	0	36	0	
8	0	0	0	0	508	508	0	0	36	0	
9	0	0	0	0	508	509	0	0	36	0	
10	0	0	0	0	511	508	0	0	36	0	
11	0	0	0	0	508	508	0	0	36	0	
12	0	0	0	0	507	508	0	0	36	0	
13	0	0	0	0	508	507	0	0	36	0	
14	0	0	0	0	508	505	0	0	36	0	
15	0	0	0	0	507	505	0	0	36	0	
0	0	0	0	0	507	505	0	0	36	0	
1	0	0	0	0	508	508	0	0	36	0	
2	0	0	0	0	510	506	0	0	36	0	
3	0	0	0	0	509	506	0	0	36	0	
4	0	0	0	0	510	506	0	0	36	0	
5	0	0	0	0	508	505	0	0	36	0	
6	0	0	0	0	509	507	0	0	36	0	
7	0	0	0	0	511	509	0	0	36	0	
8	0	0	0	0	511	509	0	0	36	0	
9	0	0	0	0	507	508	0	0	36	0	
10	0	0	0	0	506	508	0	0	36	0	
11	0	0	0	0	508	506	0	0	36	0	
12	0	0	0	0	507	506	0	0	36	0	
13	0	0	0	0	509	505	0	0	36	0	
14	0	0	0	0	509	507	0	0	36	0	
15	0	0	0	0	508	505	0	0	36	0	
0	0	0	0	0	511	507	0	0	36	0	
1	0	0	0	0	511	507	0	0	36	0	
2	0	0	0	0	509	507	0	0	36	0	
3	0	0	0	0	508	506	0	0	36	0	
4	0	0	0	0	508	506	0	0	36	0	
5	0	0	0	0	509	506	0	0	36	0	
6	0	0	0	0	508	505	0	0	36	0	
7	0	0	0	0	509	505	0	145	36	0	
8	0	0	0	0	508	505	0	109	36	0	
9	0	0	0	0	505	506	0	0	36	0	
10	0	0	0	0	509	507	0	0	36	0	
11	0	0	0	0	508	507	0	0	36	0	
12	0	0	0	0	509	509	0	0	36	0	
13	0	0	0	0	510	509	0	0	36	0	
14	0	0	0	0	509	509	0	0	36	0	
15	0	0	0	0	511	509	0	0	36	0	
0	0	0	0	0	509	508	0	0	36	0	
1	0	0	0	0	510	508	0	0	36	0	
2	0	0	0	0	509	505	0	0	36	0	
3	0	0	0	0	507	504	0	0	36	0	
4	0	0	0	0	511	504	0	0	36	0	
5	0	0	0	0	511	506	0	0	36	0	
6	0	0	0	0	509	505	0	94	36	0	
7	0	0	0	0	510	507	0	241	36	0	
8	0	0	0	0	512	508	0	408	36	0	
9	0	0	0	0	510	509	0	505	36	0	
10	0	0	0	0	508	508	0	649	36	0	
11	0	0	0	0	506	507	0	760	36	0	
12	0	0	0	0	508	507	0	912	36	0	
13	0	0	0	0	507	506	0	1018	36	0	
14	0	0	0	0	508	507	0	1018	36	0	
15	0	0	0	0	508	508	0	1018	36	0	
0	0	0	0	0	508	508	0	1018	36	0	
1	0	0	0	0	507	507	0	1018	36	0	
2	0	0	0	0	508	508	0	1018	36	0	
3	0	0	0	0	510	509	0	1018	36	0	
4	0	0	0	0	508	508	0	1018	36	0	
5	0	0	0	0	510	508	0	1018	36	0	
6	0	0	0	0	510	508	0	1018	36	0	
7	0	0	0	0	509	509	0	1018	36	0	
8	0	0	0	0	511	509	0	1017	36	0	
9	0	0	0	0	510	510	0	713	36	0	
10	0	0	0	0	509	510	0	412	36	0	
11	0	0	0	0	508	508	0	73	36	0	
12	0	0	0	0	508	508	0	0	36	0	
13	0	0	0	0	509	505	0	0	36	0	
14	0	0	0	0	509	505	0	0	36	0	
15	0	0	0	0	508	506	0	0	36	0	
0	0	0	0	0	510	506	0	0	36	0	
1	0	0	0	0	511	506	0	0	36	0	
2	0	0	0	0	511	507	0	0	36	0	
3	0	0	0	0	511	507	0	0	36	0	
4	0	0	0	0	509	507	0	0	36	0	
5	0	0	0	0	511	507	0	0	36	0	
6	0	0	0	0	510	506	0	0	36	0	
7	0	0	0	0	513	507	0	0	36	0	
8	0	0	0	0	510	506	0	0	36	0	
9	0	0	0	0	511	507	0	0	36	0	
10	0	0	0	0	509	508	0	0	36	0	
11	0	0	0	0	509	507	0	0	36	0	
12	0	0	0	0	507	507	0	0	36	0	
13	0	0	0	0	507	506	0	0	36	0	
14	0	0	0	0	507	508	0	0	36	0	
15	0	0	0	0	509	509	0	0	36	0	
0	0	0	0	0	509	508	0	0	36	0	
1	0	0	0	0	510	508	0	0	36	0	
2	0	0	0	0	508	507	0	0	36	0	
3	0	0	0	0	511	507	0	0	36	0	
4	0	0	0	0	508	506	0	0	36	0	
5	0	0	0	0	508	508	0	0	36	0	
6	0	0	0	0	510	508	0	0	36	0	
7	0	0	0	0	509	507	0	0	36	0	
8	0	0	0	0	508	508	0	0	36	0	
9	0	0	0	0	510	505	0	0	36	0	
10	0	0	0	0	506	505	0	0	36	0	
11	0	0	0	0	505	505	0	0	36	0	
12	0	0	0	0	505	505	0	0	36	0	
13	0	0	0	0	508	506	0	0	36	0	
14	0	0	0	0	507	505	0	0	36	0	
15	0	0	0	0	507	508	0	0	36	0	
0	0	0	0	0	509	505	0	0	36	0	
1	0	0	0	0	509	505	0	0	36	0	
2	0	0	0	0	509	509	0	0	36	0	
3	0	0	0	0	509	507	0	0	36	0	
4	0	0	0	0	508	505	0	0	36	0	
5	0	0	0	0	511	504	0	0	36	0	
6	0	0	0	0	509	505	0	0	36	0	
7	0	0	0	0	507	507	0	0	36	0	
8	0	0	0	0	510	506	0	0	36	0	
9	0	0	0	0	511	506	0	0	36	0	
10	0	0	0	0	512	507	0	0	36	0	
11	0	0	0	0	509	505	0	0	36	0	
12	0	0	0	0	509	508	0	0	36	1	
13	0	0	0	0	508	510	0	0	36	0	
14	0	0	0	0	507	510	0	0	36	0	
15	0	0	0	0	512	509	0	0	36	0	
0	0	0	0	0	509	509	0	0	36	0	
1	0	0	0	0	512	508	0	0	36	0	
2	0	0	0	0	509	507	0	0	36	0	
3	0	0	0	0	509	507	0	0	36	0	
4	0	0	0	0	510	508	0	0	36	0	
5	0	0	0	0	508	507	0	0	36	0	
6	0	0	0	0	509	509	0	0	36	0	
7	0	0	0	0	508	509	0	0	36	0	
8	0	0	0	0	509	509	0	0	36	0	
9	0	0	0	0	510	509	0	0	36	0	
10	0	0	0	0	508	508	0	0	36	0	
11	0	0	0	0	510	510	0	0	36	0	
12	0	0	0	0	507	510	0	0	36	0	
13	0	0	0	0	508	510	0	0	36	0	
14	0	0	0	0	507	510	0	0	36	0	
15	0	0	0	0	509	511	0	0	36	0	
0	0	0	0	0	508	511	0	0	36	0	
1	0	0	0	0	509	509	0	0	36	0	
2	0	0	0	0	508	509	0	0	36	0	
3	0	0	0	0	510	510	0	0	36	0	
4	0	0	0	0	508	509	0	0	36	0	
5	0	0	0	0	510	507	0	0	36	0	
6	0	0	0	0	508	506	0	0	36	0	
7	0	0	0	0	508	506	0	0	36	0	
8	0	0	0	0	511	508	0	0	36	0	
9	0	0	0	0	510	509	0	0	36	0	
10	0	0	0	0	507	509	0	0	36	0	
11	0	0	0	0	509	507	0	0	36	0	
12	0	0	0	0	511	507	0	0	36	0	
13	0	0	0	0	511	507	0	0	36	0	
14	0	0	0	0	507	504	0	0	36	0	
15	0	0	0	0	508	505	0	0	36	0	
0	0	0	0	0	508	505	0	0	36	0	
1	0	0	0	0	508	508	0	0	36	0	
2	0	0	0	0	508	508	0	0	36	0	
3	0	0	0	0	509	507	0	0	36	0	
4	0	0	0	0	509	508	0	0	36	0	
5	0	0	0	0	509	509	0	0	36	0	
6	0	0	0	0	507	510	0	0	36	0	
7	0	0	0	0	509	509	0	0	36	0	
8	0	0	0	0	507	509	0	0	36	0	
9	0	0	0	0	508	510	0	0	36	0	
10	0	0	0	0	510	510	0	0	36	0	
11	0	0	0	0	511	508	0	0	36	0	
12	0	0	0	0	512	508	0	0	36	0	
13	0	0	0	0	511	508	0	0	36	0	
14	0	0	0	0	508	509	0	0	36	0	
15	0	0	0	0	505	509	0	0	36	0	
0	0	0	0	0	506	510	0	0	36	0	
1	0	0	0	0	508	511	0	0	36	0	
2	0	0	0	0	507	507	0	0	36	0	
3	0	0	0	0	510	506	0	0	36	0	
4	0	0	0	0	508	506	0	0	36	0	
5	0	0	0	0	509	507	0	0	36	0	
6	0	0	0	0	510	506	0	0	36	0	
7	0	0	0	0	510	507	0	0	36	0	
8	0	0	0	0	511	507	0	0	36	0	
9	0	0	0	0	511	506	0	0	36	0	
10	0	0	0	0	510	507	0	0	36	0	
11	0	0	0	0	511	508	0	0	36	0	
12	0	0	0	0	508	510	0	0	36	0	
13	0	0	0	0	509	510	0	160	36	0	
14	0	0	0	0	507	509	0	248	36	0	
15	0	0	0	0	507	510	0	323	36	0	
0	0	0	0	0	509	510	0	338	36	0	
1	0	0	0	0	508	510	0	235	36	0	
2	0	0	0	0	509	509	0	224	36	0	
3	0	0	0	0	510	508	0	238	36	0	
4	0	0	0	0	508	511	0	374	36	0	
5	0	0	0	0	508	510	0	652	36	0	
6	0	0	0	0	510	509	0	824	36	0	
7	0	0	0	0	509	510	0	1017	36	0	
8	0	0	0	0	507	508	0	1018	36	0	
9	0	0	0	0	510	509	0	1018	36	0	
10	0	0	0	0	509	508	0	1018	36	0	
11	0	0	0	0	510	507	0	1018	36	0	
12	0	0	0	0	507	508	0	1018	36	0	
13	0	0	0	0	510	506	0	1018	36	0	
14	0	0	0	0	508	504	0	1018	36	0	
15	0	0	0	0	510	506	0	1018	36	0	
0	0	0	0	0	508	508	0	1018	36	0	
1	0	0	0	0	508	511	0	1018	36	0	
2	0	0	0	0	508	510	0	1018	36	0	
3	0	0	0	0	510	509	0	1018	36	0	
4	0	0	0	0	510	508	0	1018	36	0	
5	0	0	0	0	508	508	0	1018	36	0	
6	0	0	0	0	509	508	0	1018	36	0	
7	0	0	0	0	510	508	0	1018	36	0	
8	0	0	0	0	509	507	0	1018	36	0	
9	0	0	0	0	507	507	0	1018	36	0	
10	0	0	0	0	508	505	0	1018	36	0	
11	0	0	0	0	510	507	0	1018	36	0	
12	0	0	0	0	510	507	0	1018	36	0	
13	0	0	0	0	510	506	0	1018	36	0	
14	0	0	0	0	511	505	0	1018	36	0	
15	0	0	0	0	508	505	0	1018	36	0	
0	0	0	0	0	507	506	0	1018	36	0	
1	0	0	0	0	507	505	0	1018	36	0	
2	0	0	0	0	508	505	0	1018	36	0	
3	0	0	0	0	511	508	0	1018	36	0	
4	0	0	0	0	510	507	0	1018	36	0	
5	0	0	0	0	510	508	0	1018	36	0	
6	0	0	0	0	511	508	0	1018	36	0	
7	0	0	0	0	511	509	0	1018	36	0	
8	0	0	0	0	512	508	0	1018	36	0	
9	0	0	0	0	511	506	0	1018	36	0	
10	0	0	0	0	509	507	0	1018	36	0	
11	0	0	0	0	508	507	0	1018	36	0	
12	0	0	0	0	510	508	0	1018	36	0	
13	0	0	0	0	510	507	0	1018	36	0	
14	0	0	0	0	510	508	0	1018	36	0	
15	0	0	0	0	511	509	0	1018	36	0	
0	0	0	0	0	508	507	0	1018	36	0	
1	0	0	0	0	509	508	0	1018	36	0	
2	0	0	0	0	510	508	0	1018	36	0	
3	0	0	0	0	505	506	0	1018	36	0	
4	0	0	0	0	508	505	0	1017	36	0	
5	0	0	0	0	509	506	0	834	36	0	
6	0	0	0	0	508	506	0	662	36	0	
7	0	0	0	0	507	508	0	511	36	0	
8	0	0	0	0	508	508	0	328	36	0	
9	0	0	0	0	508	508	0	81	36	0	
10	0	0	0	0	508	507	0	0	36	0	
11	0	0	0	0	508	508	0	0	36	0	
12	0	0	0	0	508	508	0	0	36	0	
13	0	0	0	0	510	507	0	0	36	0	
14	0	0	0	0	508	508	0	0	36	0	
15	0	0	0	0	508	507	0	0	36	0	
0	0	0	0	0	510	507	0	0	36	0	
1	0	0	0	0	510	506	0	0	36	0	
2	0	0	0	0	510	506	0	0	36	0	
3	0	0	0	0	508	508	0	0	36	0	
4	0	0	0	0	507	506	0	0	36	0	
5	0	0	0	0	508	508	0	0	36	0	
6	0	0	0	0	509	508	0	0	36	0	
7	0	0	0	0	508	507	0	0	36	0	
8	0	0	0	0	512	505	0	0	36	0	
9	0	0	0	0	509	505	0	0	36	0	
10	0	0	0	0	510	508	0	0	36	0	
11	0	0	0	0	508	507	0	0	36	0	
12	0	0	0	0	509	508	0	0	36	0	
13	0	0	0	0	512	505	0	0	36	0	
14	0	0	0	0	508	504	0	0	36	0	
15	0	0	0	0	509	504	0	0	36	0	
0	0	0	0	0	509	505	0	0	36	0	
1	0	0	0	0	508	506	0	222	36	0	
2	0	0	0	0	507	506	0	483	36	0	
3	0	0	0	0	507	506	0	630	36	0	
4	0	0	0	0	506	505	0	688	36	0	
5	0	0	0	0	508	506	0	659	36	0	
6	0	0	0	0	507	506	0	553	36	0	
7	0	0	0	0	508	509	0	514	36	0	
8	0	0	0	0	510	508	0	529	36	0	
9	0	0	0	0	512	508	0	618	36	0	
10	0	0	0	0	511	508	0	705	36	0	
11	0	0	0	0	511	509	0	861	36	0	
12	0	0	0	0	510	511	0	1017	36	0	
13	0	0	0	0	510	510	0	1018	36	0	
14	0	0	0	0	511	510	0	1018	36	0	
15	0	0	0	0	512	510	0	1018	36	0	
0	0	0	0	0	509	511	0	1018	36	0	
1	0	0	0	0	508	511	0	1018	36	0	
2	0	0	0	0	509	510	0	1018	36	0	
3	0	0	0	0	507	510	0	1017	36	0	
4	0	0	0	0	509	508	0	1018	36	0	
5	0	0	0	0	510	509	0	1018	36	0	
6	0	0	0	0	508	508	0	1018	36	0	
7	0	0	0	0	508	507	0	1018	36	0	
8	0	0	0	0	510	508	0	1018	36	0	
9	0	0	0	0	511	508	0	1018	36	0	
10	0	0	0	0	511	508	0	1018	36	0	
11	0	0	0	0	511	508	0	1018	36	0	
12	0	0	0	0	508	508	0	1018	36	0	
13	0	0	0	0	511	508	0	1018	36	0	
14	0	0	0	0	511	508	0	1018	36	0	
15	0	0	0	0	506	507	0	1018	36	0	
0	0	0	0	0	510	507	0	1018	36	0	
1	0	0	0	0	507	507	0	1018	36	0	
2	0	0	0	0	508	505	0	1018	36	0	
3	0	0	0	0	507	505	0	1018	36	0	
4	0	0	0	0	507	505	0	1018	36	0	
5	0	0	0	0	510	507	0	1018	36	0	
6	0	0	0	0	507	508	0	1018	36	0	
7	0	0	0	0	508	509	0	857	36	0	
8	0	0	0	0	508	507	0	420	36	0	
9	0	0	0	0	509	509	0	0	36	0	
10	0	0	0	0	508	510	0	0	36	0	
11	0	0	0	0	511	508	0	0	36	0	
12	0	0	0	0	510	508	0	0	36	0	
13	0	0	0	0	510	508	0	0	36	0	
14	0	0	0	0	509	509	0	201	36	0	
15	0	0	0	0	509	510	0	520	36	0	
0	0	0	0	0	509	509	0	716	36	0	
1	0	0	0	0	511	508	0	890	36	0	
2	0	0	0	0	510	506	0	1018	36	0	
3	0	0	0	0	510	507	0	1018	36	0	
4	0	0	0	0	511	509	0	1017	36	0	
5	0	0	0	0	509	510	0	1018	36	0	
6	0	0	0	0	508	508	0	1018	36	0	
7	0	0	0	0	507	508	0	1018	36	0	
8	0	0	0	0	510	508	0	1017	36	0	
9	0	0	0	0	507	507	0	1017	36	0	
10	0	0	0	0	508	508	0	1018	36	0	
11	0	0	0	0	509	507	0	1018	36	0	
12	0	0	0	0	510	508	0	1018	36	0	
13	0	0	0	0	508	510	0	1018	36	0	
14	0	0	0	0	509	510	0	1018	36	0	
15	0	0	0	0	511	507	0	1018	36	0	
0	0	0	0	0	511	506	0	1018	36	0	
1	0	0	0	0	511	505	0	1018	36	0	
2	0	0	0	0	511	505	0	1018	36	0	
3	0	0	0	0	512	507	0	1018	36	0	
4	0	0	0	0	510	507	0	1018	36	0	
5	0	0	0	0	505	507	0	1018	36	0	
6	0	0	0	0	508	509	0	1018	36	0	
7	0	0	0	0	507	510	0	713	36	0	
8	0	0	0	0	507	509	0	547	36	0	
9	0	0	0	0	508	509	0	396	36	0	
10	0	0	0	0	510	510	0	365	36	0	
11	0	0	0	0	510	511	0	451	36	0	
12	0	0	0	0	510	510	0	627	36	0	
13	0	0	0	0	512	511	0	873	36	0	
14	0	0	0	0	511	509	0	1018	36	0	
15	0	0	0	0	508	508	0	1018	36	0	
0	0	0	0	0	510	508	0	1018	36	0	
1	0	0	0	0	510	505	0	1018	36	0	
2	0	0	0	0	508	506	0	1017	36	0	
3	0	0	0	0	510	506	0	1018	36	0	
4	0	0	0	0	508	507	0	1017	36	1	
5	0	0	0	0	509	506	0	1018	36	1	
6	0	0	0	0	506	506	0	1018	36	0	
7	0	0	0	0	509	507	0	1018	36	0	
8	0	0	0	0	508	507	0	1018	36	0	
9	0	0	0	0	510	508	0	1018	36	0	
10	0	0	0	0	510	507	0	1018	36	0	
11	0	0	0	0	510	508	0	1018	36	0	
12	0	0	0	0	508	508	0	1018	36	0	
13	0	0	0	0	508	507	0	1018	36	0	
14	0	0	0	0	509	505	0	1018	36	0	
15	0	0	0	0	510	505	0	1017	36	0	
0	0	0	0	0	509	508	0	814	36	0	
1	0	0	0	0	511	508	0	692	36	0	
2	0	0	0	0	511	507	0	476	36	0	
3	0	0	0	0	512	507	0	283	36	0	
4	0	0	0	0	510	507	0	281	36	0	
5	0	0	0	0	509	507	0	368	36	0	
6	0	0	0	0	510	508	0	526	36	0	
7	0	0	0	0	512	508	0	780	36	0	
8	0	0	0	0	511	509	0	985	36	0	
9	0	0	0	0	510	508	0	1017	36	0	
10	0	0	0	0	507	507	0	971	36	0	
11	0	0	0	0	510	508	0	919	36	0	
12	0	0	0	0	509	507	0	804	36	0	
13	0	0	0	0	511	506	0	600	36	0	
14	0	0	0	0	509	505	0	313	36	0	
15	0	0	0	0	508	505	0	0	36	0	
0	0	0	0	0	508	506	0	0	36	0	
1	0	0	0	0	508	508	0	0	36	0	
2	0	0	0	0	508	510	0	0	36	0	
3	0	0	0	0	513	510	0	0	36	0	
4	0	0	0	0	510	508	0	0	36	0	
5	0	0	0	0	511	509	0	0	36	0	
6	0	0	0	0	511	509	0	0	36	0	
7	0	0	0	0	508	508	0	0	36	0	
8	0	0	0	0	508	508	0	0	36	0	
9	0	0	0	0	506	507	0	0	36	0	
10	0	0	0	0	507	508	0	0	36	0	
11	0	0	0	0	506	507	0	0	36	0	
12	0	0	0	0	505	508	0	0	36	0	
13	0	0	0	0	507	507	0	0	36	0	
14	0	0	0	0	511	507	0	0	36	0	
15	0	0	0	0	507	505	0	0	36	0	
0	0	0	0	0	509	504	0	0	36	0	
1	0	0	0	0	507	504	0	0	36	0	
2	0	0	0	0	508	506	0	0	36	0	
3	0	0	0	0	508	508	0	0	36	0	
4	0	0	0	0	508	509	0	0	36	0	
5	0	0	0	0	508	509	0	0	36	0	
6	0	0	0	0	508	507	0	0	36	0	
7	0	0	0	0	510	509	0	0	36	0	
8	0	0	0	0	507	508	0	0	36	0	
9	0	0	0	0	508	507	0	0	36	0	
10	0	0	0	0	507	507	0	0	36	0	
11	0	0	0	0	508	507	0	0	36	0	
12	0	0	0	0	511	507	0	0	36	0	
13	0	0	0	0	510	507	0	0	36	0	
14	0	0	0	0	512	507	0	0	36	0	
15	0	0	0	0	510	507	0	0	36	0	
0	0	0	0	0	510	506	0	0	36	0	
1	0	0	0	0	510	507	0	0	36	0	
2	0	0	0	0	508	507	0	0	36	0	
3	0	0	0	0	509	508	0	0	36	0	
4	0	0	0	0	510	506	0	0	36	0	
5	0	0	0	0	510	507	0	0	36	0	
6	0	0	0	0	514	509	0	0	36	0	
7	0	0	0	0	511	509	0	0	36	0	
8	0	0	0	0	509	508	0	0	36	0	
9	0	0	0	0	510	508	0	0	36	0	
10	0	0	0	0	508	508	0	0	36	0	
11	0	0	0	0	507	507	0	0	36	0	
12	0	0	0	0	507	507	0	0	36	0	
13	0	0	0	0	507	508	0	0	36	0	
14	0	0	0	0	505	508	0	0	36	0	
15	0	0	0	0	506	508	0	0	36	0	
0	0	0	0	0	507	510	0	0	36	0	
1	0	0	0	0	507	510	0	0	36	0	
2	0	0	0	0	506	508	0	0	36	0	
3	0	0	0	0	509	508	0	0	36	0	
4	0	0	0	0	508	508	0	0	36	0	
5	0	0	0	0	510	509	0	0	36	0	
6	0	0	0	0	509	508	0	0	36	0	
7	0	0	0	0	508	510	0	0	36	0	
8	0	0	0	0	507	508	0	0	36	0	
9	0	0	0	0	509	508	0	0	36	0	
10	0	0	0	0	512	508	0	0	36	0	
11	0	0	0	0	506	507	0	0	36	0	
12	0	0	0	0	510	507	0	0	36	0	
13	0	0	0	0	508	506	0	0	36	0	
14	0	0	0	0	510	507	0	0	36	0	
15	0	0	0	0	511	508	0	0	36	0	
0	0	0	0	0	507	508	0	0	36	0	
1	0	0	0	0	506	508	0	0	36	0	
2	0	0	0	0	508	507	0	0	36	0	
3	0	0	0	0	508	505	0	0	36	0	
4	0	0	0	0	511	505	0	0	36	0	
5	0	0	0	0	508	507	0	0	36	0	
6	0	0	0	0	510	508	0	0	36	0	
7	0	0	0	0	512	508	0	0	36	0	
8	0	0	0	0	511	506	0	0	36	0	
9	0	0	0	0	510	507	0	0	36	0	
10	0	0	0	0	508	508	0	0	36	0	
11	0	0	0	0	509	509	0	0	36	0	
12	0	0	0	0	509	508	0	0	36	0	
13	0	0	0	0	508	508	0	0	36	0	
14	0	0	0	0	508	508	0	0	36	0	
15	0	0	0	0	510	508	0	0	36	0	
0	0	0	0	0	511	508	0	0	36	0	
1	0	0	0	0	512	508	0	0	36	0	
2	0	0	0	0	509	508	0	0	36	0	
3	0	0	0	0	511	509	0	0	36	0	
4	0	0	0	0	508	508	0	0	36	0	
5	0	0	0	0	508	509	0	0	36	0	
6	0	0	0	0	510	508	0	0	36	0	
7	0	0	0	0	507	507	0	0	36	0	
8	0	0	0	0	510	506	0	0	36	0	
9	0	0	0	0	508	504	0	0	36	0	
10	0	0	0	0	508	504	0	0	36	0	
11	0	0	0	0	509	504	0	0	36	0	
12	0	0	0	0	507	506	0	0	36	0	
13	0	0	0	0	511	507	0	0	36	0	
14	0	0	0	0	509	507	0	0	36	0	
15	0	0	0	0	510	506	0	0	36	0	
0	0	0	0	0	508	506	0	0	36	0	
1	0	0	0	0	510	508	0	0	36	0	
2	0	0	0	0	512	508	0	0	36	0	
3	0	0	0	0	508	508	0	0	36	0	
4	0	0	0	0	511	508	0	0	36	0	
5	0	0	0	0	511	508	0	0	36	0	
6	0	0	0	0	510	505	0	0	36	0	
7	0	0	0	0	508	503	0	0	36	0	
8	0	0	0	0	507	504	0	0	36	0	
9	0	0	0	0	510	505	0	0	36	0	
10	0	0	0	0	507	505	0	0	36	0	
11	0	0	0	0	508	506	0	0	36	0	
12	0	0	0	0	508	507	0	0	36	0	
13	0	0	0	0	508	508	0	0	36	0	
14	0	0	0	0	509	508	0	0	36	0	
15	0	0	0	0	509	508	0	0	36	0	
0	0	0	0	0	511	507	0	0	36	0	
1	0	0	0	0	510	508	0	0	36	0	
2	0	0	0	0	508	509	0	0	36	0	
3	0	0	0	0	506	509	0	0	36	0	
4	0	0	0	0	508	508	0	397	36	0	
5	0	0	0	0	510	508	0	822	36	0	
6	0	0	0	0	511	510	0	1018	36	0	
7	0	0	0	0	509	510	0	1018	36	0	
8	0	0	0	0	510	510	0	1018	36	0	
9	0	0	0	0	511	510	0	1018	36	0	
10	0	0	0	0	508	511	0	1018	36	0	
11	0	0	0	0	510	512	0	1018	36	0	
12	0	0	0	0	508	510	0	1018	36	0	
13	0	0	0	0	508	511	0	1017	36	0	
14	0	0	0	0	508	510	0	1018	36	0	
15	0	0	0	0	508	508	0	1018	36	0	
0	0	0	0	0	508	510	0	1018	36	0	
1	0	0	0	0	512	510	0	1018	36	0	
2	0	0	0	0	512	509	0	1018	36	0	
3	0	0	0	0	511	509	0	1018	36	0	
4	0	0	0	0	509	510	0	1018	36	0	
5	0	0	0	0	509	510	0	1018	36	0	
6	0	0	0	0	508	508	0	1018	36	0	
7	0	0	0	0	508	510	0	1018	36	0	
8	0	0	0	0	510	511	0	1018	36	0	
9	0	0	0	0	510	511	0	1018	36	0	
10	0	0	0	0	509	510	0	1018	36	0	
11	0	0	0	0	511	510	0	1018	36	0	
12	0	0	0	0	509	510	0	1018	36	0	
13	0	0	0	0	508	507	0	1018	36	0	
14	0	0	0	0	508	509	0	1018	36	0	
15	0	0	0	0	508	509	0	1018	36	0	
0	0	0	0	0	507	508	0	1018	36	0	
1	0	0	0	0	509	509	0	1018	36	0	
2	0	0	0	0	512	509	0	1018	36	0	
3	0	0	0	0	511	507	0	1018	36	0	
4	0	0	0	0	510	508	0	1018	36	0	
5	0	0	0	0	510	508	0	1018	36	0	
6	0	0	0	0	511	508	0	1018	36	0	
7	0	0	0	0	509	510	0	1018	36	0	
8	0	0	0	0	509	508	0	1018	36	0	
9	0	0	0	0	509	507	0	1018	36	0	
10	0	0	0	0	509	508	0	1018	36	0	
11	0	0	0	0	509	508	0	1018	36	0	
12	0	0	0	0	507	508	0	1018	36	0	
13	0	0	0	0	507	507	0	1018	36	0	
14	0	0	0	0	508	506	0	1018	36	0	
15	0	0	0	0	509	506	0	1018	36	0	
0	0	0	0	0	510	507	0	1017	36	0	
1	0	0	0	0	510	507	0	1018	36	0	
2	0	0	0	0	511	506	0	1017	36	0	
3	0	0	0	0	511	507	0	564	36	0	
4	0	0	0	0	510	505	0	277	36	0	
5	0	0	0	0	510	507	0	0	36	0	
6	0	0	0	0	507	507	0	0	36	0	
7	0	0	0	0	510	507	0	0	36	0	
8	0	0	0	0	508	508	0	0	36	0	
9	0	0	0	0	509	508	0	0	36	0	
10	0	0	0	0	510	509	0	0	36	0	
11	0	0	0	0	507	505	0	0	36	0	
12	0	0	0	0	509	504	0	0	36	0	
13	0	0	0	0	508	504	0	0	36	0	
14	0	0	0	0	508	505	0	0	36	0	
15	0	0	0	0	507	508	0	0	36	0	
0	0	0	0	0	510	505	0	0	36	0	
1	0	0	0	0	508	506	0	0	36	0	
2	0	0	0	0	509	506	0	0	36	0	
3	0	0	0	0	508	506	0	0	36	0	
4	0	0	0	0	511	507	0	0	36	1	
5	0	0	0	0	510	507	0	0	36	0	
6	0	0	0	0	508	505	0	0	36	0	
7	0	0	0	0	511	508	0	0	36	0	
8	0	0	0	0	507	508	0	0	36	0	
9	0	0	0	0	508	508	0	0	36	0	
10	0	0	0	0	510	507	0	0	36	0	
11	0	0	0	0	508	508	0	0	36	0	
12	0	0	0	0	510	507	0	0	36	0	
13	0	0	0	0	510	507	0	0	36	0	
14	0	0	0	0	511	509	0	0	36	1	
15	0	0	0	0	509	507	0	0	36	0	
0	0	0	0	0	508	507	0	0	36	0	
1	0	0	0	0	511	509	0	0	36	0	
2	0	0	0	0	508	508	0	0	36	0	
3	0	0	0	0	508	508	0	0	36	0	
4	0	0	0	0	508	507	0	0	36	0	
5	0	0	0	0	508	506	0	0	36	0	
6	0	0	0	0	509	507	0	0	36	0	
7	0	0	0	0	509	504	0	0	36	0	
8	0	0	0	0	510	507	0	0	36	0	
9	0	0	0	0	509	508	0	0	36	0	
10	0	0	0	0	511	506	0	0	36	0	
11	0	0	0	0	510	506	0	0	36	0	
12	0	0	0	0	511	506	0	0	36	0	
13	0	0	0	0	509	508	0	0	36	0	
14	0	0	0	0	511	507	0	0	36	0	
15	0	0	0	0	509	506	0	0	36	0	
0	0	0	0	0	507	507	0	0	36	0	
1	0	0	0	0	508	507	0	0	36	0	
2	0	0	0	0	508	507	0	0	36	0	
3	0	0	0	0	508	507	0	0	36	0	
4	0	0	0	0	509	507	0	0	36	0	
5	0	0	0	0	510	508	0	0	36	0	
6	0	0	0	0	505	508	0	0	36	0	
7	0	0	0	0	508	508	0	0	36	0	
8	0	0	0	0	509	506	0	0	36	0	
9	0	0	0	0	510	506	0	0	36	0	
10	0	0	0	0	511	506	0	0	36	0	
11	0	0	0	0	510	507	0	0	36	0	
12	0	0	0	0	508	506	0	0	36	0	
13	0	0	0	0	508	506	0	0	36	0	
14	0	0	0	0	509	508	0	312	36	0	
15	0	0	0	0	510	508	0	605	36	0	
0	0	0	0	0	510	508	0	805	36	0	
1	0	0	0	0	510	509	0	999	36	0	
2	0	0	0	0	509	509	0	1017	36	0	
3	0	0	0	0	508	508	0	1018	36	0	
4	0	0	0	0	508	508	0	1018	36	0	
5	0	0	0	0	509	507	0	1018	36	0	
6	0	0	0	0	506	509	0	1017	36	0	
7	0	0	0	0	508	508	0	1018	36	0	
8	0	0	0	0	510	507	0	1018	36	0	
9	0	0	0	0	512	506	0	1018	36	0	
10	0	0	0	0	511	508	0	1018	36	0	
11	0	0	0	0	513	509	0	1018	36	0	
12	0	0	0	0	509	508	0	1018	36	0	
13	0	0	0	0	510	509	0	1018	36	0	
14	0	0	0	0	509	507	0	1018	36	0	
15	0	0	0	0	510	506	0	1018	36	0	
0	0	0	0	0	509	507	0	1018	36	0	
1	0	0	0	0	507	506	0	1018	36	0	
2	0	0	0	0	504	507	0	1018	36	0	
3	0	0	0	0	508	508	0	1018	36	0	
4	0	0	0	0	508	507	0	1018	36	0	
5	0	0	0	0	507	507	0	1017	36	0	
6	0	0	0	0	509	506	0	869	36	0	
7	0	0	0	0	510	505	0	783	36	0	
8	0	0	0	0	511	506	0	764	36	0	
9	0	0	0	0	511	507	0	985	36	0	
10	0	0	0	0	511	507	0	1017	36	0	
11	0	0	0	0	509	508	0	1018	36	0	
12	0	0	0	0	510	508	0	1017	36	0	
13	0	0	0	0	508	507	0	1018	36	0	
14	0	0	0	0	509	508	0	1018	36	0	
15	0	0	0	0	510	508	0	1018	36	0	
0	0	0	0	0	510	509	0	1018	36	0	
1	0	0	0	0	508	508	0	1018	36	0	
2	0	0	0	0	508	507	0	1018	36	0	
3	0	0	0	0	507	507	0	1018	36	0	
4	0	0	0	0	508	507	0	1018	36	0	
5	0	0	0	0	508	507	0	1018	36	0	
6	0	0	0	0	506	505	0	1018	36	0	
7	0	0	0	0	508	506	0	1018	36	0	
8	0	0	0	0	509	506	0	1018	36	0	
9	0	0	0	0	510	506	0	1018	36	0	
10	0	0	0	0	510	505	0	1017	36	0	
11	0	0	0	0	509	505	0	833	36	0	
12	0	0	0	0	511	507	0	648	36	0	
13	0	0	0	0	510	507	0	520	36	0	
14	0	0	0	0	511	508	0	369	36	0	
15	0	0	0	0	509	508	0	230	36	0	
0	0	0	0	0	509	507	0	19	36	0	
1	0	0	0	0	510	506	0	0	36	0	
2	0	0	0	0	508	506	0	0	36	0	
3	0	0	0	0	508	508	0	0	36	0	
4	0	0	0	0	508	508	0	0	36	0	
5	0	0	0	0	505	508	0	0	36	0	
6	0	0	0	0	508	508	0	0	36	0	
7	0	0	0	0	509	507	0	0	36	0	
8	0	0	0	0	509	507	0	0	36	0	
9	0	0	0	0	509	507	0	0	36	0	
10	0	0	0	0	509	507	0	0	36	0	
11	0	0	0	0	509	508	0	0	36	0	
12	0	0	0	0	508	507	0	0	36	0	
13	0	0	0	0	509	507	0	0	36	0	
14	0	0	0	0	510	505	0	0	36	0	
15	0	0	0	0	508	505	0	0	36	0	
0	0	0	0	0	510	504	0	310	36	0	
1	0	0	0	0	507	504	0	457	36	0	
2	0	0	0	0	511	507	0	689	36	0	
3	0	0	0	0	507	507	0	834	36	0	
4	0	0	0	0	508	507	0	906	36	0	
5	0	0	0	0	510	507	0	979	36	0	
6	0	0	0	0	511	508	0	1018	36	0	
7	0	0	0	0	511	508	0	1017	36	0	
8	0	0	0	0	508	508	0	1018	36	0	
9	0	0	0	0	508	506	0	1018	36	0	
10	0	0	0	0	512	507	0	1017	36	0	
11	0	0	0	0	510	507	0	916	36	0	
12	0	0	0	0	508	509	0	854	36	0	
13	0	0	0	0	507	509	0	815	36	0	
14	0	0	0	0	506	507	0	831	36	0	
15	0	0	0	0	509	507	0	816	36	0	
0	0	0	0	0	507	507	0	794	36	0	
1	0	0	0	0	508	508	0	871	36	0	
2	0	0	0	0	508	506	0	914	36	0	
3	0	0	0	0	508	505	0	905	36	0	
4	0	0	0	0	508	504	0	955	36	0	
5	0	0	0	0	510	505	0	1018	36	0	
6	0	0	0	0	511	506	0	1017	36	0	
7	0	0	0	0	507	507	0	1018	36	0	
8	0	0	0	0	509	507	0	1018	36	0	
9	0	0	0	0	511	506	0	1018	36	0	
10	0	0	0	0	511	508	0	1018	36	0	
11	0	0	0	0	512	508	0	1018	36	0	
12	0	0	0	0	510	505	0	1018	36	0	
13	0	0	0	0	511	506	0	1018	36	0	
14	0	0	0	0	511	507	0	1018	36	0	
15	0	0	0	0	508	507	0	1018	36	0	
0	0	0	0	0	508	509	0	1018	36	0	
1	0	0	0	0	510	508	0	1018	36	0	
2	0	0	0	0	509	508	0	1018	36	0	
3	0	0	0	0	510	507	0	1018	36	0	
4	0	0	0	0	509	507	0	1018	36	0	
5	0	0	0	0	505	507	0	1018	36	0	
6	0	0	0	0	510	506	0	1018	36	0	
7	0	0	0	0	508	507	0	1018	36	0	
8	0	0	0	0	511	507	0	1017	36	0	
9	0	0	0	0	510	506	0	1018	36	0	
10	0	0	0	0	510	507	0	1018	36	0	
11	0	0	0	0	508	506	0	1018	36	0	
12	0	0	0	0	507	506	0	1018	36	0	
13	0	0	0	0	511	506	0	1018	36	0	
14	0	0	0	0	511	507	0	1018	36	0	
15	0	0	0	0	511	508	0	1018	36	0	
0	0	0	0	0	512	508	0	1018	36	0	
1	0	0	0	0	512	507	0	1018	36	0	
2	0	0	0	0	511	510	0	1018	36	0	
3	0	0	0	0	510	509	0	1018	36	0	
4	0	0	0	0	509	508	0	1018	36	0	
5	0	0	0	0	508	509	0	1018	36	0	
6	0	0	0	0	508	510	0	1018	36	0	
7	0	0	0	0	507	510	0	1018	36	0	
8	0	0	0	0	507	508	0	1018	36	0	
9	0	0	0	0	507	508	0	1018	36	0	
10	0	0	0	0	508	508	0	1018	36	0	
11	0	0	0	0	509	510	0	1018	36	0	
12	0	0	0	0	510	509	0	1018	36	0	
13	0	0	0	0	509	508	0	1018	36	0	
14	0	0	0	0	509	508	0	1018	36	0	
15	0	0	0	0	511	508	0	1018	36	0	
0	0	0	0	0	512	509	0	1018	36	0	
1	0	0	0	0	512	510	0	1018	36	0	
2	0	0	0	0	507	508	0	1018	36	0	
3	0	0	0	0	509	509	0	1017	36	0	
4	0	0	0	0	508	507	0	699	36	0	
5	0	0	0	0	508	507	0	343	36	0	
6	0	0	0	0	508	506	0	28	36	0	
7	0	0	0	0	507	506	0	0	36	0	
8	0	0	0	0	509	507	0	0	36	0	
9	0	0	0	0	508	507	0	0	36	0	
10	0	0	0	0	511	508	0	0	36	0	
11	0	0	0	0	509	509	0	0	36	0	
12	0	0	0	0	508	510	0	0	36	0	
13	0	0	0	0	509	511	0	0	36	0	
14	0	0	0	0	508	510	0	0	36	0	
15	0	0	0	0	508	509	0	0	36	0	
0	0	0	0	0	509	510	0	0	36	0	
1	0	0	0	0	509	509	0	0	36	0	
2	0	0	0	0	507	509	0	0	36	0	
3	0	0	0	0	508	508	0	0	36	0	
4	0	0	0	0	510	508	0	0	36	0	
5	0	0	0	0	507	507	0	0	36	0	
6	0	0	0	0	509	507	0	0	36	0	
7	0	0	0	0	507	507	0	0	36	0	
8	0	0	0	0	509	507	0	0	36	0	
9	0	0	0	0	511	508	0	0	36	0	
10	0	0	0	0	512	509	0	0	36	0	
11	0	0	0	0	508	509	0	0	36	0	
12	0	0	0	0	511	508	0	0	36	0	
13	0	0	0	0	510	506	0	0	36	0	
14	0	0	0	0	508	507	0	0	36	0	
15	0	0	0	0	508	507	0	0	36	0	
0	0	0	0	0	508	508	0	0	36	0	
1	0	0	0	0	510	509	0	0	36	0	
2	0	0	0	0	508	508	0	0	36	0	
3	0	0	0	0	506	509	0	0	36	0	
4	0	0	0	0	508	509	0	0	36	0	
5	0	0	0	0	508	509	0	0	36	0	
6	0	0	0	0	508	510	0	0	36	0	
7	0	0	0	0	505	510	0	138	36	0	
8	0	0	0	0	510	510	0	415	36	0	
9	0	0	0	0	508	511	0	518	36	0	
10	0	0	0	0	508	511	0	669	36	0	
11	0	0	0	0	510	511	0	892	36	0	
12	0	0	0	0	511	511	0	1018	36	0	
13	0	0	0	0	508	510	0	1018	36	0	
14	0	0	0	0	512	510	0	1018	36	0	
15	0	0	0	0	511	509	0	1018	36	0	
0	0	0	0	0	512	510	0	1018	36	0	
1	0	0	0	0	509	510	0	1018	36	0	
2	0	0	0	0	510	509	0	1018	36	0	
3	0	0	0	0	511	510	0	1018	36	0	
4	0	0	0	0	508	511	0	1018	36	0	
5	0	0	0	0	509	511	0	1018	36	0	
6	0	0	0	0	510	510	0	1018	36	0	
7	0	0	0	0	507	509	0	1018	36	0	
8	0	0	0	0	509	508	0	1018	36	0	
9	0	0	0	0	511	506	0	1018	36	0	
10	0	0	0	0	508	507	0	1018	36	0	
11	0	0	0	0	510	507	0	1018	36	0	
12	0	0	0	0	511	508	0	1017	36	0	
13	0	0	0	0	510	508	0	1018	36	0	
14	0	0	0	0	510	509	0	1018	36	0	
15	0	0	0	0	507	510	0	1018	36	0	
0	0	0	0	0	508	508	0	1018	36	0	
1	0	0	0	0	511	508	0	1018	36	0	
2	0	0	0	0	511	507	0	1018	36	0	
3	0	0	0	0	509	507	0	1018	36	0	
4	0	0	0	0	511	506	0	1018	36	0	
5	0	0	0	0	509	507	0	1018	36	0	
6	0	0	0	0	509	508	0	1018	36	0	
7	0	0	0	0	509	507	0	1018	36	0	
8	0	0	0	0	508	507	0	1018	36	0	
9	0	0	0	0	510	508	0	1018	36	0	
10	0	0	0	0	507	507	0	1018	36	0	
11	0	0	0	0	507	509	0	1018	36	0	
12	0	0	0	0	508	509	0	1017	36	0	
13	0	0	0	0	511	508	0	1018	36	0	
14	0	0	0	0	510	509	0	1018	36	0	
15	0	0	0	0	507	508	0	1018	36	0	
0	0	0	0	0	511	508	0	1018	36	0	
1	0	0	0	0	508	509	0	1018	36	0	
2	0	0	0	0	510	509	0	1018	36	0	
3	0	0	0	0	510	511	0	1018	36	0	
4	0	0	0	0	511	511	0	1018	36	0	
5	0	0	0	0	512	511	0	1018	36	0	
6	0	0	0	0	514	511	0	1018	36	0	
7	0	0	0	0	510	511	0	1018	36	0	
8	0	0	0	0	510	511	0	1018	36	0	
9	0	0	0	0	505	509	0	1018	36	0	
10	0	0	0	0	509	510	0	1018	36	0	
11	0	0	0	0	510	511	0	1018	36	0	
12	0	0	0	0	507	508	0	1018	36	0	
13	0	0	0	0	512	509	0	1018	36	0	
14	0	0	0	0	511	508	0	1018	36	0	
15	0	0	0	0	510	506	0	1018	36	0	
0	0	0	0	0	510	505	0	1018	36	0	
1	0	0	0	0	509	505	0	1018	36	0	
2	0	0	0	0	510	506	0	1018	36	0	
3	0	0	0	0	508	505	0	1018	36	0	
4	0	0	0	0	510	506	0	1018	36	0	
5	0	0	0	0	509	507	0	1018	36	0	
6	0	0	0	0	510	506	0	1018	36	0	
7	0	0	0	0	509	507	0	1018	36	0	
8	0	0	0	0	510	507	0	1018	36	0	
9	0	0	0	0	508	507	0	1018	36	0	
10	0	0	0	0	510	508	0	1017	36	0	
11	0	0	0	0	508	508	0	561	36	0	
12	0	0	0	0	509	510	0	399	36	0	
13	0	0	0	0	510	509	0	336	36	0	
14	0	0	0	0	510	509	0	415	36	0	
15	0	0	0	0	508	509	0	577	36	0	
0	0	0	0	0	507	510	0	868	36	0	
1	0	0	0	0	507	510	0	1017	36	0	
2	0	0	0	0	510	508	0	1018	36	0	
3	0	0	0	0	509	510	0	1018	36	0	
4	0	0	0	0	511	509	0	1018	36	0	
5	0	0	0	0	511	509	0	1018	36	0	
6	0	0	0	0	510	509	0	1018	36	0	
7	0	0	0	0	510	509	0	1018	36	0	
8	0	0	0	0	510	510	0	1018	36	0	
9	0	0	0	0	510	509	0	1018	36	0	
10	0	0	0	0	510	510	0	1018	36	0	
11	0	0	0	0	507	511	0	1017	36	0	
12	0	0	0	0	510	510	0	1017	36	0	
13	0	0	0	0	508	510	0	636	36	0	
14	0	0	0	0	510	507	0	233	36	0	
15	0	0	0	0	509	507	0	0	36	0	
0	0	0	0	0	508	506	0	0	36	0	
1	0	0	0	0	508	506	0	0	36	0	
2	0	0	0	0	508	506	0	0	36	0	
3	0	0	0	0	511	504	0	0	36	0	
4	0	0	0	0	510	505	0	0	36	0	
5	0	0	0	0	512	507	0	0	36	0	
6	0	0	0	0	511	508	0	0	36	0	
7	0	0	0	0	508	508	0	0	36	0	
8	0	0	0	0	509	507	0	0	36	0	
9	0	0	0	0	509	507	0	0	36	0	
10	0	0	0	0	508	508	0	0	36	0	
11	0	0	0	0	507	507	0	0	36	0	
12	0	0	0	0	507	508	0	0	36	0	
13	0	0	0	0	507	509	0	0	36	0	
14	0	0	0	0	507	509	0	0	36	0	
15	0	0	0	0	511	508	0	0	36	0	
0	0	0	0	0	508	506	0	0	36	0	
1	0	0	0	0	505	507	0	164	36	0	
2	0	0	0	0	509	507	0	140	36	0	
3	0	0	0	0	506	507	0	10	36	0	
4	0	0	0	0	508	509	0	0	36	0	
5	0	0	0	0	509	508	0	0	36	0	
6	0	0	0	0	507	506	0	0	36	0	
7	0	0	0	0	511	506	0	99	36	0	
8	0	0	0	0	507	506	0	81	36	0	
9	0	0	0	0	509	506	0	1	36	0	
10	0	0	0	0	509	507	0	0	36	0	
11	0	0	0	0	506	505	0	0	36	0	
12	0	0	0	0	509	506	0	0	36	0	
13	0	0	0	0	507	506	0	0	36	0	
14	0	0	0	0	509	507	0	0	36	0	
15	0	0	0	0	510	507	0	0	36	0	
0	0	0	0	0	510	504	0	0	36	0	
1	0	0	0	0	509	504	0	0	36	0	
2	0	0	0	0	508	506	0	237	36	0	
3	0	0	0	0	508	507	0	371	36	0	
4	0	0	0	0	509	507	0	604	36	0	
5	0	0	0	0	509	507	0	907	36	0	
6	0	0	0	0	512	507	0	1018	36	0	
7	0	0	0	0	509	508	0	1018	36	0	
8	0	0	0	0	509	509	0	1018	36	0	
9	0	0	0	0	508	507	0	1018	36	0	
10	0	0	0	0	509	507	0	1018	36	0	
11	0	0	0	0	509	506	0	1018	36	0	
12	0	0	0	0	508	506	0	1018	36	0	
13	0	0	0	0	509	507	0	1018	36	0	
14	0	0	0	0	509	508	0	1018	36	0	
15	0	0	0	0	508	509	0	1018	36	0	
0	0	0	0	0	510	507	0	1018	36	0	
1	0	0	0	0	508	506	0	1018	36	0	
2	0	0	0	0	509	506	0	1018	36	0	
3	0	0	0	0	510	506	0	1018	36	0	
4	0	0	0	0	510	505	0	1018	36	0	
5	0	0	0	0	512	504	0	1018	36	0	
6	0	0	0	0	511	506	0	1018	36	0	
7	0	0	0	0	511	507	0	1018	36	0	
8	0	0	0	0	510	508	0	1018	36	0	
9	0	0	0	0	511	508	0	1018	36	0	
10	0	0	0	0	507	508	0	1018	36	0	
11	0	0	0	0	507	508	0	1018	36	0	
12	0	0	0	0	507	507	0	1018	36	0	
13	0	0	0	0	506	507	0	1018	36	0	
14	0	0	0	0	508	505	0	1018	36	0	
15	0	0	0	0	511	506	0	1018	36	0	
0	0	0	0	0	512	504	0	1018	36	0	
1	0	0	0	0	511	508	0	1018	36	0	
2	0	0	0	0	509	507	0	1018	36	0	
3	0	0	0	0	511	507	0	1018	36	0	
4	0	0	0	0	512	508	0	702	36	0	
5	0	0	0	0	509	508	0	173	36	0	
6	0	0	0	0	510	510	0	0	36	0	
7	0	0	0	0	511	510	0	0	36	0	
8	0	0	0	0	511	511	0	0	36	0	
9	0	0	0	0	511	509	0	0	36	0	
10	0	0	0	0	509	507	0	0	36	0	
11	0	0	0	0	509	508	0	0	36	0	
12	0	0	0	0	505	508	0	0	36	0	
13	0	0	0	0	505	506	0	0	36	0	
14	0	0	0	0	508	507	0	0	36	0	
15	0	0	0	0	507	506	0	0	36	0	
0	0	0	0	0	510	505	0	0	36	0	
1	0	0	0	0	508	506	0	0	36	0	
2	0	0	0	0	509	505	0	0	36	0	
3	0	0	0	0	512	505	0	0	36	0	
4	0	0	0	0	510	505	0	0	36	0	
5	0	0	0	0	510	505	0	0	36	0	
6	0	0	0	0	507	505	0	0	36	0	
7	0	0	0	0	507	505	0	0	36	0	
8	0	0	0	0	510	507	0	0	36	0	
9	0	0	0	0	509	505	0	0	36	0	
10	0	0	0	0	510	506	0	0	36	0	
11	0	0	0	0	511	506	0	0	36	0	
12	0	0	0	0	511	505	0	0	36	0	
13	0	0	0	0	508	507	0	0	36	0	
14	0	0	0	0	509	506	0	0	36	0	
15	0	0	0	0	508	508	0	300	36	0	
0	0	0	0	0	508	509	0	1012	36	0	
1	0	0	0	0	508	509	0	1018	36	0	
2	0	0	0	0	511	510	0	1018	36	0	
3	0	0	0	0	509	509	0	1018	36	0	
4	0	0	0	0	509	511	0	1018	36	0	
5	0	0	0	0	508	511	0	1018	36	0	
6	0	0	0	0	509	509	0	1018	36	0	
7	0	0	0	0	510	508	0	1018	36	0	
8	0	0	0	0	508	508	0	1018	36	0	
9	0	0	0	0	509	508	0	1018	36	0	
10	0	0	0	0	508	507	0	1018	36	0	
11	0	0	0	0	507	505	0	1018	36	0	
12	0	0	0	0	512	505	0	1017	36	0	
13	0	0	0	0	509	505	0	1018	36	0	
14	0	0	0	0	508	507	0	1018	36	0	
15	0	0	0	0	508	507	0	1018	36	0	
0	0	0	0	0	508	508	0	1018	36	0	
1	0	0	0	0	509	509	0	1018	36	0	
2	0	0	0	0	510	509	0	1018	36	0	
3	0	0	0	0	511	509	0	1018	36	0	
4	0	0	0	0	508	509	0	1018	36	0	
5	0	0	0	0	510	508	0	1018	36	0	
6	0	0	0	0	511	507	0	1018	36	0	
7	0	0	0	0	510	508	0	1018	36	0	
8	0	0	0	0	509	508	0	1018	36	0	
9	0	0	0	0	510	509	0	1018	36	0	
10	0	0	0	0	510	510	0	1018	36	0	
11	0	0	0	0	509	511	0	1018	36	0	
12	0	0	0	0	507	510	0	1018	36	0	
13	0	0	0	0	507	510	0	1018	36	0	
14	0	0	0	0	507	512	0	1018	36	0	
15	0	0	0	0	505	511	0	1018	36	0	
0	0	0	0	0	508	510	0	1018	36	0	
1	0	0	0	0	508	510	0	1018	36	0	
2	0	0	0	0	507	509	0	1018	36	0	
3	0	0	0	0	508	509	0	1018	36	0	
4	0	0	0	0	510	511	0	1018	36	0	
5	0	0	0	0	510	509	0	1017	36	1	
6	0	0	0	0	510	508	0	1018	36	0	
7	0	0	0	0	511	508	0	1018	36	0	
8	0	0	0	0	509	507	0	1018	36	0	
9	0	0	0	0	508	508	0	1018	36	0	
10	0	0	0	0	507	506	0	1018	36	0	
11	0	0	0	0	508	505	0	1018	36	0	
12	0	0	0	0	508	508	0	1018	36	0	
13	0	0	0	0	508	508	0	1018	36	0	
14	0	0	0	0	510	511	0	1018	36	1	
15	0	0	0	0	508	509	0	1018	36	0	
0	0	0	0	0	508	508	0	1018	36	0	
1	0	0	0	0	511	508	0	1018	36	0	
2	0	0	0	0	509	507	0	1018	36	0	
3	0	0	0	0	510	505	0	1018	36	0	
4	0	0	0	0	511	505	0	1018	36	0	
5	0	0	0	0	510	505	0	1018	36	0	
6	0	0	0	0	510	507	0	1018	36	1	
7	0	0	0	0	510	507	0	1018	36	0	
8	0	0	0	0	511	507	0	1018	36	0	
9	0	0	0	0	511	507	0	1018	36	0	
10	0	0	0	0	510	509	0	1018	36	0	
11	0	0	0	0	508	508	0	1018	36	0	
12	0	0	0	0	510	508	0	1018	36	0	
13	0	0	0	0	509	509	0	1017	36	0	
14	0	0	0	0	510	510	0	1018	36	0	
15	0	0	0	0	508	509	0	1018	36	0	
0	0	0	0	0	508	510	0	1018	36	0	
1	0	0	0	0	506	508	0	1018	36	0	
2	0	0	0	0	506	506	0	1018	36	0	
3	0	0	0	0	508	507	0	1018	36	0	
4	0	0	0	0	510	507	0	1018	36	0	
5	0	0	0	0	508	507	0	1018	36	0	
6	0	0	0	0	512	507	0	1018	36	0	
7	0	0	0	0	511	506	0	1018	36	0	
8	0	0	0	0	511	508	0	1018	36	0	
9	0	0	0	0	509	509	0	1018	36	0	
10	0	0	0	0	509	510	0	1018	36	0	
11	0	0	0	0	508	509	0	1018	36	0	
12	0	0	0	0	510	510	0	1018	36	0	
13	0	0	0	0	510	510	0	1018	36	0	
14	0	0	0	0	511	511	0	1018	36	0	
15	0	0	0	0	509	512	0	1018	36	0	
0	0	0	0	0	508	511	0	1018	36	0	
1	0	0	0	0	511	509	0	1018	36	0	
2	0	0	0	0	511	508	0	1018	36	0	
3	0	0	0	0	510	508	0	1018	36	0	
4	0	0	0	0	508	509	0	1018	36	0	
5	0	0	0	0	509	509	0	1018	36	0	
6	0	0	0	0	508	508	0	1018	36	0	
7	0	0	0	0	509	508	0	1018	36	0	
8	0	0	0	0	509	507	0	1018	36	0	
9	0	0	0	0	508	505	0	751	36	0	
10	0	0	0	0	507	504	0	298	36	0	
11	0	0	0	0	509	505	0	0	36	0	
12	0	0	0	0	511	505	0	0	36	0	
13	0	0	0	0	509	505	0	0	36	0	
14	0	0	0	0	509	506	0	0	36	0	
15	0	0	0	0	508	504	0	0	36	0	
0	0	0	0	0	512	505	0	0	36	0	
1	0	0	0	0	509	507	0	0	36	0	
2	0	0	0	0	509	509	0	0	36	0	
3	0	0	0	0	506	509	0	0	36	0	
4	0	0	0	0	509	508	0	0	36	0	
5	0	0	0	0	510	508	0	0	36	0	
6	0	0	0	0	509	507	0	0	36	0	
7	0	0	0	0	509	508	0	0	36	0	
8	0	0	0	0	509	509	0	0	36	0	
9	0	0	0	0	507	509	0	0	36	0	
10	0	0	0	0	506	509	0	0	36	0	
11	0	0	0	0	512	508	0	0	36	0	
12	0	0	0	0	509	510	0	0	36	0	
13	0	0	0	0	508	510	0	0	36	0	
14	0	0	0	0	512	510	0	0	36	0	
15	0	0	0	0	509	507	0	0	36	0	
0	0	0	0	0	510	508	0	0	36	0	
1	0	0	0	0	510	508	0	0	36	0	
2	0	0	0	0	507	508	0	0	36	0	
3	0	0	0	0	508	507	0	0	36	0	
4	0	0	0	0	509	504	0	0	36	0	
5	0	0	0	0	508	504	0	0	36	0	
6	0	0	0	0	508	503	0	0	36	0	
7	0	0	0	0	510	503	0	0	36	0	
8	0	0	0	0	507	502	0	97	36	0	
9	0	0	0	0	509	504	0	271	36	0	
10	0	0	0	0	510	505	0	576	36	0	
11	0	0	0	0	508	507	0	1017	36	0	
12	0	0	0	0	508	508	0	1018	36	0	
13	0	0	0	0	511	508	0	1018	36	0	
14	0	0	0	0	511	510	0	1018	36	0	
15	0	0	0	0	513	509	0	1018	36	0	
0	0	0	0	0	510	510	0	1018	36	0	
1	0	0	0	0	508	511	0	1018	36	0	
2	0	0	0	0	510	509	0	1018	36	0	
3	0	0	0	0	510	508	0	1018	36	0	
4	0	0	0	0	509	507	0	1018	36	0	
5	0	0	0	0	507	507	0	1018	36	0	
6	0	0	0	0	509	508	0	1018	36	0	
7	0	0	0	0	510	508	0	1018	36	0	
8	0	0	0	0	510	509	0	1018	36	0	
9	0	0	0	0	510	506	0	1018	36	0	
10	0	0	0	0	510	506	0	1018	36	0	
11	0	0	0	0	511	508	0	1018	36	0	
12	0	0	0	0	511	509	0	1018	36	0	
13	0	0	0	0	508	508	0	1018	36	0	
14	0	0	0	0	510	508	0	1018	36	0	
15	0	0	0	0	509	510	0	1018	36	0	
0	0	0	0	0	511	508	0	1018	36	0	
1	0	0	0	0	510	508	0	1018	36	0	
2	0	0	0	0	511	508	0	1018	36	0	
3	0	0	0	0	509	507	0	1018	36	0	
4	0	0	0	0	505	507	0	1018	36	0	
5	0	0	0	0	507	508	0	1018	36	0	
6	0	0	0	0	506	508	0	1018	36	0	
7	0	0	0	0	507	508	0	1018	36	0	
8	0	0	0	0	509	508	0	1018	36	0	
9	0	0	0	0	509	508	0	1017	36	0	
10	0	0	0	0	510	508	0	716	36	0	
11	0	0	0	0	509	508	0	418	36	0	
12	0	0	0	0	506	506	0	103	36	0	
13	0	0	0	0	510	506	0	0	36	0	
14	0	0	0	0	509	508	0	0	36	0	
15	0	0	0	0	510	510	0	0	36	0	
0	0	0	0	0	508	509	0	0	36	0	
1	0	0	0	0	511	508	0	0	36	0	
2	0	0	0	0	512	507	0	0	36	0	
3	0	0	0	0	510	506	0	0	36	0	
4	0	0	0	0	511	505	0	0	36	0	
5	0	0	0	0	510	507	0	0	36	0	
6	0	0	0	0	508	507	0	0	36	0	
7	0	0	0	0	508	507	0	0	36	0	
8	0	0	0	0	508	504	0	0	36	0	
9	0	0	0	0	511	505	0	0	36	0	
10	0	0	0	0	511	505	0	0	36	0	
11	0	0	0	0	512	505	0	0	36	0	
12	0	0	0	0	511	507	0	0	36	0	
13	0	0	0	0	508	507	0	0	36	0	
14	0	0	0	0	510	506	0	0	36	0	
15	0	0	0	0	509	507	0	0	36	0	
0	0	0	0	0	510	504	0	0	36	0	
1	0	0	0	0	510	504	0	0	36	0	
2	0	0	0	0	510	504	0	0	36	0	
3	0	0	0	0	508	506	0	0	36	0	
4	0	0	0	0	507	504	0	0	36	0	
5	0	0	0	0	507	505	0	0	36	0	
6	0	0	0	0	508	504	0	0	36	0	
7	0	0	0	0	507	505	0	0	36	0	
8	0	0	0	0	506	506	0	0	36	0	
9	0	0	0	0	507	506	0	0	36	0	
10	0	0	0	0	507	508	0	0	36	0	
11	0	0	0	0	510	508	0	0	36	0	
12	0	0	0	0	509	508	0	313	36	0	
13	0	0	0	0	508	506	0	945	36	0	
14	0	0	0	0	510	506	0	1018	36	0	
15	0	0	0	0	510	507	0	1018	36	0	
0	0	0	0	0	508	507	0	1017	36	0	
1	0	0	0	0	507	507	0	1018	36	0	
2	0	0	0	0	508	508	0	1018	36	0	
3	0	0	0	0	508	507	0	1018	36	0	
4	0	0	0	0	508	506	0	1018	36	0	
5	0	0	0	0	509	506	0	1018	36	0	
6	0	0	0	0	506	505	0	1018	36	0	
7	0	0	0	0	510	507	0	1018	36	0	
8	0	0	0	0	508	507	0	1018	36	0	
9	0	0	0	0	509	507	0	1018	36	0	
10	0	0	0	0	511	506	0	1018	36	0	
11	0	0	0	0	509	507	0	1018	36	0	
12	0	0	0	0	508	507	0	1018	36	0	
13	0	0	0	0	509	506	0	1018	36	0	
14	0	0	0	0	508	506	0	1018	36	0	
15	0	0	0	0	511	507	0	1018	36	0	
0	0	0	0	0	511	508	0	1018	36	0	
1	0	0	0	0	510	508	0	1018	36	0	
2	0	0	0	0	513	508	0	1018	36	0	
3	0	0	0	0	511	508	0	1018	36	0	
4	0	0	0	0	509	509	0	1018	36	0	
5	0	0	0	0	511	509	0	1018	36	0	
6	0	0	0	0	508	510	0	1018	36	0	
7	0	0	0	0	509	507	0	1018	36	0	
8	0	0	0	0	509	508	0	1018	36	0	
9	0	0	0	0	508	507	0	1018	36	0	
10	0	0	0	0	507	506	0	1018	36	0	
11	0	0	0	0	510	507	0	1018	36	0	
12	0	0	0	0	509	505	0	1018	36	0	
13	0	0	0	0	510	507	0	1018	36	0	
14	0	0	0	0	510	508	0	1018	36	0	
15	0	0	0	0	508	507	0	876	36	0	
0	0	0	0	0	507	507	0	604	36	0	
1	0	0	0	0	507	507	0	343	36	0	
2	0	0	0	0	508	507	0	81	36	0	
3	0	0	0	0	511	508	0	0	36	0	
4	0	0	0	0	508	509	0	0	36	0	
5	0	0	0	0	511	510	0	0	36	0	
6	0	0	0	0	510	508	0	0	36	0	
7	0	0	0	0	509	508	0	0	36	0	
8	0	0	0	0	511	507	0	0	36	0	
9	0	0	0	0	509	507	0	0	36	0	
10	0	0	0	0	508	508	0	0	36	0	
11	0	0	0	0	512	510	0	0	36	0	
12	0	0	0	0	509	509	0	0	36	0	
13	0	0	0	0	508	508	0	0	36	0	
14	0	0	0	0	509	508	0	0	36	0	
15	0	0	0	0	506	510	0	0	36	0	
0	0	0	0	0	507	509	0	0	36	0	
1	0	0	0	0	510	508	0	0	36	0	
2	0	0	0	0	511	509	0	0	36	0	
3	0	0	0	0	509	507	0	0	36	0	
4	0	0	0	0	512	510	0	0	36	0	
5	0	0	0	0	510	509	0	0	36	0	
6	0	0	0	0	510	508	0	0	36	0	
7	0	0	0	0	509	508	0	0	36	0	
8	0	0	0	0	508	508	0	0	36	0	
9	0	0	0	0	508	510	0	0	36	0	
10	0	0	0	0	508	510	0	0	36	0	
11	0	0	0	0	508	508	0	0	36	0	
12	0	0	0	0	512	510	0	0	36	0	
13	0	0	0	0	508	511	0	0	36	0	
14	0	0	0	0	510	511	0	0	36	1	
15	0	0	0	0	508	510	0	0	36	0	
0	0	0	0	0	509	511	0	0	36	0	
1	0	0	0	0	511	510	0	0	36	0	
2	0	0	0	0	508	509	0	0	36	0	
3	0	0	0	0	509	507	0	0	36	0	
4	0	0	0	0	509	506	0	0	36	0	
5	0	0	0	0	510	507	0	0	36	0	
6	0	0	0	0	511	510	0	0	36	0	
7	0	0	0	0	508	509	0	0	36	0	
8	0	0	0	0	508	508	0	0	36	0	
9	0	0	0	0	508	507	0	0	36	0	
10	0	0	0	0	510	505	0	0	36	0	
11	0	0	0	0	508	505	0	0	36	0	
12	0	0	0	0	508	505	0	283	36	0	
13	0	0	0	0	506	507	0	327	36	0	
14	0	0	0	0	508	507	0	475	36	0	
15	0	0	0	0	511	507	0	690	36	0	
0	0	0	0	0	511	508	0	787	36	0	
1	0	0	0	0	513	508	0	920	36	0	
2	0	0	0	0	508	509	0	930	36	0	
3	0	0	0	0	511	509	0	794	36	0	
4	0	0	0	0	506	508	0	537	36	0	
5	0	0	0	0	513	506	0	169	36	0	
6	0	0	0	0	508	506	0	0	36	0	
7	0	0	0	0	510	506	0	0	36	0	
8	0	0	0	0	508	507	0	0	36	0	
9	0	0	0	0	508	506	0	0	36	0	
10	0	0	0	0	508	508	0	0	36	0	
11	0	0	0	0	508	509	0	0	36	0	
12	0	0	0	0	507	509	0	0	36	0	
13	0	0	0	0	507	510	0	0	36	0	
14	0	0	0	0	508	508	0	0	36	0	
15	0	0	0	0	511	508	0	0	36	0	
0	0	0	0	0	508	508	0	0	36	0	
1	0	0	0	0	512	509	0	0	36	0	
2	0	0	0	0	511	507	0	0	36	0	
3	0	0	0	0	509	508	0	0	36	0	
4	0	0	0	0	509	507	0	0	36	0	
5	0	0	0	0	508	508	0	0	36	0	
6	0	0	0	0	510	508	0	0	36	0	
7	0	0	0	0	509	508	0	0	36	0	
8	0	0	0	0	510	508	0	0	36	1	
9	0	0	0	0	507	507	0	0	36	0	
10	0	0	0	0	505	507	0	0	36	0	
11	0	0	0	0	508	507	0	0	36	0	
12	0	0	0	0	507	507	0	0	36	0	
13	0	0	0	0	507	507	0	0	36	0	
14	0	0	0	0	508	505	0	0	36	0	
15	0	0	0	0	507	504	0	0	36	0	
0	0	0	0	0	510	505	0	0	36	0	
1	0	0	0	0	508	505	0	0	36	0	
2	0	0	0	0	507	505	0	0	36	0	
3	0	0	0	0	509	504	0	0	36	0	
4	0	0	0	0	508	505	0	0	36	0	
5	0	0	0	0	508	507	0	0	36	0	
6	0	0	0	0	508	508	0	0	36	0	
7	0	0	0	0	510	508	0	0	36	0	
8	0	0	0	0	509	508	0	0	36	0	
9	0	0	0	0	510	506	0	0	36	0	
10	0	0	0	0	509	508	0	0	36	0	
11	0	0	0	0	506	508	0	0	36	0	
12	0	0	0	0	508	506	0	0	36	0	
13	0	0	0	0	508	508	0	0	36	0	
14	0	0	0	0	507	507	0	0	36	0	
15	0	0	0	0	510	507	0	0	36	0	
0	0	0	0	0	512	506	0	0	36	0	
1	0	0	0	0	508	504	0	0	36	0	
2	0	0	0	0	510	505	0	0	36	0	
3	0	0	0	0	509	506	0	0	36	0	
4	0	0	0	0	512	508	0	0	36	0	
5	0	0	0	0	509	508	0	0	36	0	
6	0	0	0	0	508	508	0	0	36	0	
7	0	0	0	0	510	507	0	0	36	0	
8	0	0	0	0	509	505	0	0	36	0	
9	0	0	0	0	511	505	0	0	36	0	
10	0	0	0	0	508	505	0	0	36	0	
11	0	0	0	0	508	504	0	0	36	0	
12	0	0	0	0	508	505	0	0	36	0	
13	0	0	0	0	507	505	0	0	36	0	
14	0	0	0	0	508	507	0	0	36	0	
15	0	0	0	0	511	507	0	0	36	0	
0	0	0	0	0	510	508	0	0	36	0	
1	0	0	0	0	509	509	0	0	36	0	
2	0	0	0	0	510	508	0	0	36	0	
3	0	0	0	0	510	510	0	0	36	0	
4	0	0	0	0	507	510	0	0	36	0	
5	0	0	0	0	509	511	0	0	36	0	
6	0	0	0	0	509	509	0	0	36	0	
7	0	0	0	0	506	510	0	0	36	0	
8	0	0	0	0	511	509	0	0	36	0	
9	0	0	0	0	512	510	0	0	36	0	
10	0	0	0	0	508	509	0	0	36	0	
11	0	0	0	0	507	511	0	0	36	0	
12	0	0	0	0	507	511	0	0	36	0	
13	0	0	0	0	509	511	0	0	36	0	
14	0	0	0	0	507	509	0	0	36	0	
15	0	0	0	0	507	509	0	0	36	0	
0	0	0	0	0	507	508	0	0	36	0	
1	0	0	0	0	507	508	0	0	36	0	
2	0	0	0	0	508	508	0	0	36	0	
3	0	0	0	0	511	508	0	0	36	0	
4	0	0	0	0	509	509	0	0	36	0	
5	0	0	0	0	508	508	0	0	36	0	
6	0	0	0	0	508	509	0	0	36	0	
7	0	0	0	0	509	510	0	0	36	0	
8	0	0	0	0	509	510	0	0	36	0	
9	0	0	0	0	510	509	0	0	36	0	
10	0	0	0	0	512	507	0	0	36	0	
11	0	0	0	0	511	506	0	0	36	0	
12	0	0	0	0	509	508	0	0	36	0	
13	0	0	0	0	507	507	0	0	36	0	
14	0	0	0	0	508	507	0	0	36	0	
15	0	0	0	0	510	506	0	0	36	0	
0	0	0	0	0	508	507	0	0	36	0	
1	0	0	0	0	509	508	0	0	36	0	
2	0	0	0	0	508	506	0	0	36	0	
3	0	0	0	0	509	508	0	0	36	0	
4	0	0	0	0	508	508	0	0	36	0	
5	0	0	0	0	507	508	0	0	36	0	
6	0	0	0	0	510	508	0	0	36	0	
7	0	0	0	0	509	506	0	0	36	0	
8	0	0	0	0	511	505	0	0	36	0	
9	0	0	0	0	512	506	0	0	36	0	
10	0	0	0	0	509	505	0	0	36	0	
11	0	0	0	0	509	505	0	0	36	0	
12	0	0	0	0	510	505	0	0	36	0	
13	0	0	0	0	506	506	0	0	36	0	
14	0	0	0	0	506	505	0	0	36	0	
15	0	0	0	0	508	505	0	0	36	0	
0	0	0	0	0	507	507	0	0	36	0	
1	0	0	0	0	508	507	0	0	36	0	
2	0	0	0	0	507	506	0	0	36	0	
3	0	0	0	0	510	508	0	0	36	0	
4	0	0	0	0	508	509	0	0	36	0	
5	0	0	0	0	511	509	0	0	36	0	
6	0	0	0	0	509	507	0	0	36	0	
7	0	0	0	0	508	506	0	0	36	0	
8	0	0	0	0	513	509	0	0	36	0	
9	0	0	0	0	510	509	0	0	36	0	
10	0	0	0	0	509	509	0	0	36	0	
11	0	0	0	0	509	509	0	0	36	0	
12	0	0	0	0	508	509	0	0	36	0	
13	0	0	0	0	509	508	0	0	36	0	
14	0	0	0	0	507	507	0	0	36	0	
15	0	0	0	0	507	508	0	0	36	0	
0	0	0	0	0	508	507	0	0	36	0	
1	0	0	0	0	506	507	0	0	36	0	
2	0	0	0	0	508	506	0	0	36	0	
3	0	0	0	0	509	507	0	0	36	0	
4	0	0	0	0	508	507	0	0	36	0	
5	0	0	0	0	508	506	0	0	36	0	
6	0	0	0	0	509	506	0	0	36	0	
7	0	0	0	0	511	507	0	0	36	0	
8	0	0	0	0	510	506	0	0	36	0	
9	0	0	0	0	510	507	0	0	36	0	
10	0	0	0	0	510	507	0	0	36	0	
11	0	0	0	0	510	508	0	0	36	0	
12	0	0	0	0	510	507	0	0	36	0	
13	0	0	0	0	509	506	0	0	36	0	
14	0	0	0	0	509	507	0	0	36	0	
15	0	0	0	0	507	508	0	0	36	0	
0	0	0	0	0	505	508	0	0	36	0	
1	0	0	0	0	509	507	0	0	36	0	
2	0	0	0	0	509	507	0	0	36	0	
3	0	0	0	0	511	507	0	0	36	0	
4	0	0	0	0	510	506	0	0	36	0	
5	0	0	0	0	510	505	0	0	36	0	
6	0	0	0	0	511	507	0	0	36	0	
7	0	0	0	0	508	506	0	0	36	0	
8	0	0	0	0	508	506	0	509	36	0	
9	0	0	0	0	510	505	0	1011	36	0	
10	0	0	0	0	508	504	0	1018	36	0	
11	0	0	0	0	508	504	0	1018	36	0	
12	0	0	0	0	511	504	0	1018	36	0	
13	0	0	0	0	510	504	0	1018	36	0	
14	0	0	0	0	508	505	0	1018	36	0	
15	0	0	0	0	509	505	0	1018	36	0	
0	0	0	0	0	509	506	0	1018	36	0	
1	0	0	0	0	508	506	0	1018	36	0	
2	0	0	0	0	509	506	0	1018	36	0	
3	0	0	0	0	508	505	0	1018	36	0	
4	0	0	0	0	507	505	0	1018	36	0	
5	0	0	0	0	509	505	0	1018	36	0	
6	0	0	0	0	509	505	0	1018	36	0	
7	0	0	0	0	510	505	0	1018	36	0	
8	0	0	0	0	510	507	0	1018	36	0	
9	0	0	0	0	512	507	0	1018	36	0	
10	0	0	0	0	511	508	0	1018	36	0	
11	0	0	0	0	510	507	0	1018	36	0	
12	0	0	0	0	511	509	0	1018	36	0	
13	0	0	0	0	510	509	0	1018	36	0	
14	0	0	0	0	509	509	0	1018	36	0	
15	0	0	0	0	510	512	0	1018	36	0	
0	0	0	0	0	509	509	0	1018	36	0	
1	0	0	0	0	509	509	0	1018	36	0	
2	0	0	0	0	508	508	0	1018	36	0	
3	0	0	0	0	508	505	0	1018	36	0	
4	0	0	0	0	510	506	0	1018	36	0	
5	0	0	0	0	508	507	0	1018	36	0	
6	0	0	0	0	509	507	0	1018	36	0	
7	0	0	0	0	508	505	0	1018	36	0	
8	0	0	0	0	508	507	0	1018	36	0	
9	0	0	0	0	509	508	0	1018	36	0	
10	0	0	0	0	510	508	0	1018	36	0	
11	0	0	0	0	509	510	0	1018	36	0	
12	0	0	0	0	510	512	0	1018	36	0	
13	0	0	0	0	511	511	0	1018	36	0	
14	0	0	0	0	511	510	0	1018	36	0	
15	0	0	0	0	511	509	0	1018	36	0	
0	0	0	0	0	510	511	0	1018	36	0	
1	0	0	0	0	510	511	0	1018	36	0	
2	0	0	0	0	508	511	0	1018	36	0	
3	0	0	0	0	511	512	0	1018	36	0	
4	0	0	0	0	508	511	0	1018	36	0	
5	0	0	0	0	510	510	0	1018	36	0	
6	0	0	0	0	510	510	0	1018	36	0	
7	0	0	0	0	508	508	0	1018	36	0	
8	0	0	0	0	511	508	0	1018	36	0	
9	0	0	0	0	509	508	0	1018	36	0	
10	0	0	0	0	511	510	0	1018	36	0	
11	0	0	0	0	512	509	0	1018	36	0	
12	0	0	0	0	511	507	0	1018	36	0	
13	0	0	0	0	511	508	0	1018	36	0	
14	0	0	0	0	510	508	0	1018	36	0	
15	0	0	0	0	508	510	0	1018	36	1	
0	0	0	0	0	509	510	0	1018	36	0	
1	0	0	0	0	505	509	0	1018	36	0	
2	0	0	0	0	507	509	0	1018	36	0	
3	0	0	0	0	507	509	0	1018	36	0	
4	0	0	0	0	509	511	0	1018	36	0	
5	0	0	0	0	509	510	0	1018	36	0	
6	0	0	0	0	510	509	0	1018	36	0	
7	0	0	0	0	511	510	0	1018	36	0	
8	0	0	0	0	511	511	0	1018	36	0	
9	0	0	0	0	511	511	0	1018	36	0	
10	0	0	0	0	508	510	0	1018	36	0	
11	0	0	0	0	509	509	0	1018	36	0	
12	0	0	0	0	511	508	0	1017	36	0	
13	0	0	0	0	510	505	0	1018	36	0	
14	0	0	0	0	511	507	0	1018	36	0	
15	0	0	0	0	508	506	0	1018	36	0	
0	0	0	0	0	507	508	0	1018	36	0	
1	0	0	0	0	508	508	0	1018	36	0	
2	0	0	0	0	504	508	0	1018	36	0	
3	0	0	0	0	510	509	0	1018	36	0	
4	0	0	0	0	510	509	0	1018	36	0	
5	0	0	0	0	509	508	0	1018	36	0	
6	0	0	0	0	509	510	0	1018	36	0	
7	0	0	0	0	510	512	0	1018	36	0	
8	0	0	0	0	510	511	0	1018	36	0	
9	0	0	0	0	507	509	0	1018	36	0	
10	0	0	0	0	507	508	0	1018	36	0	
11	0	0	0	0	508	510	0	1018	36	0	
12	0	0	0	0	506	511	0	1018	36	0	
13	0	0	0	0	510	509	0	1018	36	0	
14	0	0	0	0	510	509	0	1018	36	0	
15	0	0	0	0	511	508	0	1018	36	0	
0	0	0	0	0	510	508	0	1018	36	0	
1	0	0	0	0	512	508	0	1018	36	0	
2	0	0	0	0	509	507	0	1018	36	0	
3	0	0	0	0	507	506	0	1018	36	0	
4	0	0	0	0	509	506	0	1018	36	0	
5	0	0	0	0	510	504	0	1018	36	0	
6	0	0	0	0	509	504	0	1018	36	0	
7	0	0	0	0	511	504	0	820	36	0	
8	0	0	0	0	510	503	0	626	36	0	
9	0	0	0	0	510	504	0	494	36	0	
10	0	0	0	0	511	507	0	481	36	0	
11	0	0	0	0	507	507	0	684	36	0	
12	0	0	0	0	508	508	0	817	36	0	
13	0	0	0	0	510	507	0	961	36	0	
14	0	0	0	0	510	507	0	1017	36	0	
15	0	0	0	0	511	506	0	1018	36	0	
0	0	0	0	0	509	506	0	1018	36	0	
1	0	0	0	0	508	507	0	1017	36	0	
2	0	0	0	0	507	507	0	1018	36	0	
3	0	0	0	0	504	505	0	1018	36	0	
4	0	0	0	0	508	505	0	1018	36	0	
5	0	0	0	0	510	504	0	1018	36	0	
6	0	0	0	0	507	507	0	1017	36	0	
7	0	0	0	0	510	506	0	1017	36	0	
8	0	0	0	0	509	506	0	764	36	0	
9	0	0	0	0	511	506	0	640	36	0	
10	0	0	0	0	511	507	0	438	36	0	
11	0	0	0	0	509	509	0	293	36	0	
12	0	0	0	0	510	508	0	241	36	0	
13	0	0	0	0	512	505	0	112	36	0	
14	0	0	0	0	510	506	0	0	36	0	
15	0	0	0	0	508	506	0	0	36	0	
0	0	0	0	0	509	507	0	0	36	0	
1	0	0	0	0	510	507	0	0	36	0	
2	0	0	0	0	508	508	0	0	36	0	
3	0	0	0	0	508	508	0	0	36	0	
4	0	0	0	0	508	504	0	0	36	0	
5	0	0	0	0	509	504	0	0	36	0	
6	0	0	0	0	508	504	0	0	36	0	
7	0	0	0	0	508	505	0	0	36	0	
8	0	0	0	0	507	506	0	0	36	0	
9	0	0	0	0	509	505	0	0	36	0	
10	0	0	0	0	510	507	0	0	36	0	
11	0	0	0	0	508	506	0	0	36	0	
12	0	0	0	0	510	506	0	0	36	0	
13	0	0	0	0	508	506	0	0	36	0	
14	0	0	0	0	508	505	0	0	36	0	
15	0	0	0	0	510	505	0	0	36	0	
0	0	0	0	0	507	506	0	0	36	0	
1	0	0	0	0	508	507	0	0	36	0	
2	0	0	0	0	509	506	0	0	36	0	
3	0	0	0	0	508	506	0	0	36	0	
4	0	0	0	0	509	506	0	0	36	0	
5	0	0	0	0	507	507	0	0	36	0	
6	0	0	0	0	506	508	0	0	36	0	
7	0	0	0	0	509	507	0	113	36	0	
8	0	0	0	0	507	508	0	165	36	0	
9	0	0	0	0	510	507	0	339	36	0	
10	0	0	0	0	509	507	0	462	36	0	
11	0	0	0	0	511	508	0	580	36	0	
12	0	0	0	0	508	509	0	827	36	0	
13	0	0	0	0	508	508	0	989	36	0	
14	0	0	0	0	510	507	0	1018	36	0	
15	0	0	0	0	508	505	0	1018	36	0	
0	0	0	0	0	510	507	0	1017	36	0	
1	0	0	0	0	510	506	0	1018	36	0	
2	0	0	0	0	511	508	0	1018	36	0	
3	0	0	0	0	511	510	0	1018	36	0	
4	0	0	0	0	508	508	0	1018	36	0	
5	0	0	0	0	507	508	0	1018	36	0	
6	0	0	0	0	508	508	0	1018	36	0	
7	0	0	0	0	507	508	0	1018	36	0	
8	0	0	0	0	510	508	0	1018	36	0	
9	0	0	0	0	511	508	0	1018	36	0	
10	0	0	0	0	508	508	0	1018	36	0	
11	0	0	0	0	509	508	0	1017	36	0	
12	0	0	0	0	509	507	0	857	36	0	
13	0	0	0	0	509	506	0	661	36	0	
14	0	0	0	0	510	506	0	566	36	0	
15	0	0	0	0	512	507	0	476	36	0	
0	0	0	0	0	512	507	0	321	36	0	
1	0	0	0	0	510	508	0	146	36	0	
2	0	0	0	0	511	507	0	0	36	0	
3	0	0	0	0	511	505	0	0	36	0	
4	0	0	0	0	508	503	0	0	36	0	
5	0	0	0	0	508	505	0	0	36	0	
6	0	0	0	0	505	504	0	0	36	0	
7	0	0	0	0	505	506	0	0	36	0	
8	0	0	0	0	507	506	0	0	36	0	
9	0	0	0	0	511	505	0	0	36	0	
10	0	0	0	0	509	506	0	191	36	0	
11	0	0	0	0	508	507	0	376	36	0	
12	0	0	0	0	510	507	0	569	36	0	
13	0	0	0	0	509	508	0	749	36	0	
14	0	0	0	0	509	508	0	908	36	0	
15	0	0	0	0	509	508	0	973	36	0	
0	0	0	0	0	510	508	0	992	36	0	
1	0	0	0	0	509	510	0	1017	36	0	
2	0	0	0	0	509	510	0	1018	36	0	
3	0	0	0	0	509	510	0	1018	36	0	
4	0	0	0	0	508	509	0	1018	36	0	
5	0	0	0	0	508	508	0	1018	36	0	
6	0	0	0	0	507	506	0	1018	36	0	
7	0	0	0	0	508	505	0	1018	36	0	
8	0	0	0	0	510	505	0	1018	36	0	
9	0	0	0	0	511	508	0	1018	36	0	
10	0	0	0	0	509	507	0	1018	36	0	
11	0	0	0	0	510	507	0	1018	36	0	
12	0	0	0	0	508	507	0	1017	36	0	
13	0	0	0	0	509	509	0	876	36	0	
14	0	0	0	0	511	507	0	758	36	0	
15	0	0	0	0	507	508	0	612	36	0	
0	0	0	0	0	508	506	0	715	36	0	
1	0	0	0	0	509	507	0	797	36	0	
2	0	0	0	0	509	508	0	888	36	0	
3	0	0	0	0	510	508	0	987	36	0	
4	0	0	0	0	511	508	0	1018	36	0	
5	0	0	0	0	510	511	0	1017	36	0	
6	0	0	0	0	508	511	0	1018	36	0	
7	0	0	0	0	506	511	0	1018	36	0	
8	0	0	0	0	508	513	0	1018	36	0	
9	0	0	0	0	511	510	0	1018	36	0	
10	0	0	0	0	508	510	0	1018	36	0	
11	0	0	0	0	509	509	0	1018	36	0	
12	0	0	0	0	511	508	0	1017	36	0	
13	0	0	0	0	508	507	0	1018	36	0	
14	0	0	0	0	510	508	0	1018	36	0	
15	0	0	0	0	510	508	0	1018	36	0	
0	0	0	0	0	509	508	0	1018	36	0	
1	0	0	0	0	511	509	0	1018	36	0	
2	0	0	0	0	512	508	0	1018	36	0	
3	0	0	0	0	510	509	0	1018	36	0	
4	0	0	0	0	512	510	0	1018	36	0	
5	0	0	0	0	510	509	0	1018	36	0	
6	0	0	0	0	510	510	0	1018	36	0	
7	0	0	0	0	509	510	0	1018	36	0	
8	0	0	0	0	507	509	0	1018	36	0	
9	0	0	0	0	507	509	0	1018	36	0	
10	0	0	0	0	507	508	0	1018	36	0	
11	0	0	0	0	507	509	0	1018	36	0	
12	0	0	0	0	509	508	0	1018	36	0	
13	0	0	0	0	509	507	0	1018	36	0	
14	0	0	0	0	509	508	0	1018	36	0	
15	0	0	0	0	507	507	0	1018	36	0	
0	0	0	0	0	509	507	0	1018	36	0	
1	0	0	0	0	509	507	0	1018	36	0	
2	0	0	0	0	508	506	0	1018	36	0	
3	0	0	0	0	510	508	0	1018	36	0	
4	0	0	0	0	508	508	0	1018	36	0	
5	0	0	0	0	508	507	0	1018	36	0	
6	0	0	0	0	510	507	0	1018	36	0	
7	0	0	0	0	506	510	0	1018	36	0	
8	0	0	0	0	508	510	0	1018	36	0	
9	0	0	0	0	508	509	0	1018	36	0	
10	0	0	0	0	507	508	0	1018	36	0	
11	0	0	0	0	507	508	0	1018	36	0	
12	0	0	0	0	511	509	0	1018	36	0	
13	0	0	0	0	512	508	0	1018	36	0	
14	0	0	0	0	510	508	0	1018	36	0	
15	0	0	0	0	512	507	0	1018	36	0	
0	0	0	0	0	511	507	0	1018	36	0	
1	0	0	0	0	511	506	0	1018	36	0	
2	0	0	0	0	508	505	0	857	36	0	
3	0	0	0	0	509	506	0	668	36	0	
4	0	0	0	0	512	505	0	569	36	0	
5	0	0	0	0	512	507	0	387	36	0	
6	0	0	0	0	510	506	0	255	36	0	
7	0	0	0	0	507	507	0	0	36	0	
8	0	0	0	0	508	507	0	0	36	0	
9	0	0	0	0	508	506	0	0	36	0	
10	0	0	0	0	509	507	0	0	36	0	
11	0	0	0	0	509	508	0	0	36	0	
12	0	0	0	0	508	508	0	0	36	0	
13	0	0	0	0	508	507	0	0	36	0	
14	0	0	0	0	508	505	0	0	36	0	
15	0	0	0	0	509	507	0	0	36	0	
0	0	0	0	0	507	507	0	0	36	0	
1	0	0	0	0	508	507	0	0	36	0	
2	0	0	0	0	507	506	0	0	36	0	
3	0	0	0	0	507	507	0	0	36	0	
4	0	0	0	0	512	508	0	0	36	0	
5	0	0	0	0	509	509	0	0	36	0	
6	0	0	0	0	509	508	0	0	36	0	
7	0	0	0	0	512	508	0	0	36	0	
8	0	0	0	0	511	508	0	0	36	0	
9	0	0	0	0	510	508	0	0	36	0	
10	0	0	0	0	509	507	0	0	36	0	
11	0	0	0	0	507	506	0	0	36	0	
12	0	0	0	0	509	506	0	0	36	0	
13	0	0	0	0	508	506	0	0	36	0	
14	0	0	0	0	510	506	0	0	36	0	
15	0	0	0	0	508	506	0	0	36	0	
0	0	0	0	0	509	508	0	0	36	1	
1	0	0	0	0	509	508	0	0	36	0	
2	0	0	0	0	508	509	0	0	36	0	
3	0	0	0	0	510	507	0	362	36	0	
4	0	0	0	0	510	506	0	517	36	0	
5	0	0	0	0	510	506	0	779	36	0	
6	0	0	0	0	512	504	0	940	36	0	
7	0	0	0	0	510	507	0	1017	36	0	
8	0	0	0	0	511	506	0	1018	36	0	
9	0	0	0	0	510	505	0	1018	36	0	
10	0	0	0	0	508	506	0	1018	36	0	
11	0	0	0	0	508	505	0	1018	36	0	
12	0	0	0	0	510	505	0	1018	36	0	
13	0	0	0	0	509	505	0	1018	36	0	
14	0	0	0	0	509	505	0	1018	36	0	
15	0	0	0	0	509	505	0	1018	36	0	
0	0	0	0	0	510	504	0	1018	36	0	
1	0	0	0	0	511	504	0	1018	36	0	
2	0	0	0	0	507	505	0	1017	36	0	
3	0	0	0	0	508	505	0	1018	36	0	
4	0	0	0	0	510	506	0	1018	36	0	
5	0	0	0	0	507	506	0	1018	36	0	
6	0	0	0	0	508	509	0	1018	36	0	
7	0	0	0	0	508	509	0	1017	36	0	
8	0	0	0	0	510	509	0	1018	36	0	
9	0	0	0	0	510	509	0	1018	36	0	
10	0	0	0	0	509	507	0	1018	36	0	
11	0	0	0	0	508	507	0	1018	36	0	
12	0	0	0	0	509	505	0	1018	36	0	
13	0	0	0	0	509	504	0	1018	36	0	
14	0	0	0	0	511	507	0	1018	36	0	
15	0	0	0	0	511	509	0	1018	36	0	
0	0	0	0	0	508	508	0	1018	36	0	
1	0	0	0	0	510	507	0	1018	36	0	
2	0	0	0	0	508	507	0	1018	36	0	
3	0	0	0	0	508	507	0	1018	36	0	
4	0	0	0	0	508	507	0	1018	36	0	
5	0	0	0	0	508	506	0	1018	36	0	
6	0	0	0	0	510	507	0	1018	36	0	
7	0	0	0	0	511	507	0	1018	36	0	
8	0	0	0	0	508	507	0	1018	36	0	
9	0	0	0	0	509	508	0	1018	36	0	
10	0	0	0	0	507	510	0	1018	36	0	
11	0	0	0	0	509	511	0	1018	36	0	
12	0	0	0	0	505	511	0	1018	36	0	
13	0	0	0	0	507	511	0	1017	36	0	
14	0	0	0	0	507	510	0	1017	36	0	
15	0	0	0	0	509	510	0	861	36	0	
0	0	0	0	0	510	509	0	559	36	0	
1	0	0	0	0	510	510	0	164	36	0	
2	0	0	0	0	510	512	0	0	36	0	
3	0	0	0	0	509	511	0	0	36	0	
4	0	0	0	0	509	511	0	0	36	0	
5	0	0	0	0	511	511	0	0	36	0	
6	0	0	0	0	508	510	0	0	36	0	
7	0	0	0	0	511	509	0	0	36	0	
8	0	0	0	0	511	508	0	0	36	0	
9	0	0	0	0	511	510	0	0	36	0	
10	0	0	0	0	508	510	0	0	36	0	
11	0	0	0	0	510	509	0	0	36	0	
12	0	0	0	0	507	508	0	0	36	0	
13	0	0	0	0	507	508	0	0	36	0	
14	0	0	0	0	509	508	0	0	36	0	
15	0	0	0	0	508	506	0	0	36	0	
0	0	0	0	0	508	506	0	0	36	0	
1	0	0	0	0	509	507	0	0	36	0	
2	0	0	0	0	510	508	0	0	36	0	
3	0	0	0	0	511	509	0	0	36	0	
4	0	0	0	0	510	510	0	0	36	0	
5	0	0	0	0	510	510	0	0	36	0	
6	0	0	0	0	512	509	0	0	36	0	
7	0	0	0	0	511	510	0	0	36	0	
8	0	0	0	0	510	511	0	0	36	0	
9	0	0	0	0	512	510	0	0	36	0	
10	0	0	0	0	508	508	0	0	36	0	
11	0	0	0	0	508	508	0	0	36	0	
12	0	0	0	0	507	507	0	0	36	0	
13	0	0	0	0	506	508	0	0	36	0	
14	0	0	0	0	506	507	0	0	36	0	
15	0	0	0	0	507	508	0	0	36	0	
0	0	0	0	0	509	509	0	0	36	0	
1	0	0	0	0	508	509	0	0	36	0	
2	0	0	0	0	510	510	0	0	36	0	
3	0	0	0	0	510	509	0	0	36	0	
4	0	0	0	0	509	509	0	0	36	0	
5	0	0	0	0	510	510	0	0	36	0	
6	0	0	0	0	509	510	0	0	36	0	
7	0	0	0	0	508	509	0	0	36	0	
8	0	0	0	0	512	511	0	0	36	0	
9	0	0	0	0	511	511	0	0	36	0	
10	0	0	0	0	506	511	0	0	36	0	
11	0	0	0	0	512	512	0	0	36	0	
12	0	0	0	0	507	510	0	0	36	0	
13	0	0	0	0	509	510	0	0	36	0	
14	0	0	0	0	504	510	0	0	36	0	
15	0	0	0	0	509	510	0	0	36	0	
0	0	0	0	0	507	510	0	0	36	0	
1	0	0	0	0	509	512	0	0	36	0	
2	0	0	0	0	510	511	0	0	36	0	
3	0	0	0	0	508	509	0	0	36	0	
4	0	0	0	0	510	511	0	0	36	0	
5	0	0	0	0	510	510	0	0	36	0	
6	0	0	0	0	509	510	0	0	36	0	
7	0	0	0	0	511	507	0	0	36	0	
8	0	0	0	0	510	507	0	0	36	0	
9	0	0	0	0	510	508	0	0	36	0	
10	0	0	0	0	509	509	0	0	36	0	
11	0	0	0	0	511	510	0	0	36	0	
12	0	0	0	0	511	509	0	0	36	0	
13	0	0	0	0	509	509	0	0	36	0	
14	0	0	0	0	507	511	0	0	36	0	
15	0	0	0	0	505	510	0	0	36	0	
0	0	0	0	0	505	508	0	226	36	0	
1	0	0	0	0	507	508	0	268	36	0	
2	0	0	0	0	507	508	0	197	36	0	
3	0	0	0	0	510	508	0	0	36	0	
4	0	0	0	0	511	508	0	0	36	0	
5	0	0	0	0	509	507	0	0	36	0	
6	0	0	0	0	510	508	0	0	36	0	
7	0	0	0	0	505	506	0	0	36	0	
8	0	0	0	0	509	506	0	0	36	0	
9	0	0	0	0	510	506	0	0	36	0	
10	0	0	0	0	507	508	0	0	36	0	
11	0	0	0	0	509	506	0	0	36	0	
12	0	0	0	0	507	507	0	0	36	0	
13	0	0	0	0	508	506	0	0	36	0	
14	0	0	0	0	509	506	0	112	36	0	
15	0	0	0	0	510	506	0	253	36	0	
0	0	0	0	0	510	504	0	457	36	0	
1	0	0	0	0	508	504	0	691	36	0	
2	0	0	0	0	508	507	0	960	36	0	
3	0	0	0	0	509	506	0	1018	36	0	
4	0	0	0	0	509	506	0	1018	36	0	
5	0	0	0	0	509	507	0	1018	36	0	
6	0	0	0	0	511	508	0	1018	36	0	
7	0	0	0	0	507	507	0	1018	36	0	
8	0	0	0	0	508	507	0	1018	36	0	
9	0	0	0	0	507	507	0	1018	36	0	
10	0	0	0	0	511	507	0	1018	36	0	
11	0	0	0	0	511	507	0	1018	36	0	
12	0	0	0	0	509	507	0	1017	36	0	
13	0	0	0	0	509	506	0	1018	36	0	
14	0	0	0	0	509	506	0	1017	36	0	
15	0	0	0	0	507	505	0	1018	36	0	
0	0	0	0	0	505	504	0	606	36	0	
1	0	0	0	0	514	506	0	324	36	0	
2	0	0	0	0	510	504	0	0	36	0	
3	0	0	0	0	510	505	0	0	36	0	
4	0	0	0	0	511	504	0	0	36	0	
5	0	0	0	0	508	504	0	0	36	0	
6	0	0	0	0	508	504	0	0	36	0	
7	0	0	0	0	510	504	0	0	36	0	
8	0	0	0	0	508	505	0	0	36	0	
9	0	0	0	0	511	505	0	0	36	0	
10	0	0	0	0	510	507	0	0	36	0	
11	0	0	0	0	511	508	0	0	36	0	
12	0	0	0	0	509	508	0	0	36	0	
13	0	0	0	0	510	506	0	0	36	0	
14	0	0	0	0	509	506	0	0	36	0	
15	0	0	0	0	508	505	0	0	36	0	
0	0	0	0	0	507	504	0	0	36	0	
1	0	0	0	0	505	505	0	0	36	0	
2	0	0	0	0	509	503	0	0	36	0	
3	0	0	0	0	510	505	0	0	36	0	
4	0	0	0	0	509	506	0	0	36	0	
5	0	0	0	0	510	507	0	0	36	0	
6	0	0	0	0	510	508	0	0	36	0	
7	0	0	0	0	508	508	0	0	36	0	
8	0	0	0	0	509	508	0	0	36	0	
9	0	0	0	0	506	508	0	0	36	0	
10	0	0	0	0	505	508	0	0	36	0	
11	0	0	0	0	508	507	0	0	36	0	
12	0	0	0	0	510	505	0	0	36	0	
13	0	0	0	0	510	506	0	0	36	0	
14	0	0	0	0	507	506	0	0	36	0	
15	0	0	0	0	508	508	0	0	36	0	
0	0	0	0	0	507	508	0	0	36	0	
1	0	0	0	0	509	508	0	0	36	0	
2	0	0	0	0	508	509	0	0	36	0	
3	0	0	0	0	508	508	0	0	36	0	
4	0	0	0	0	511	509	0	0	36	0	
5	0	0	0	0	511	507	0	0	36	0	
6	0	0	0	0	509	508	0	0	36	0	
7	0	0	0	0	511	506	0	0	36	0	
8	0	0	0	0	509	504	0	0	36	0	
9	0	0	0	0	509	505	0	0	36	0	
10	0	0	0	0	508	506	0	0	36	0	
11	0	0	0	0	510	507	0	157	36	0	
12	0	0	0	0	511	508	0	342	36	0	
13	0	0	0	0	508	508	0	472	36	0	
14	0	0	0	0	511	509	0	504	36	0	
15	0	0	0	0	510	506	0	531	36	0	
0	0	0	0	0	511	504	0	502	36	0	
1	0	0	0	0	510	504	0	350	36	0	
2	0	0	0	0	508	507	0	190	36	0	
3	0	0	0	0	508	508	0	70	36	0	
4	0	0	0	0	508	508	0	25	36	0	
5	0	0	0	0	507	508	0	0	36	0	
6	0	0	0	0	510	508	0	0	36	0	
7	0	0	0	0	508	508	0	0	36	0	
8	0	0	0	0	509	509	0	0	36	1	
9	0	0	0	0	510	507	0	0	36	0	
10	0	0	0	0	508	507	0	0	36	0	
11	0	0	0	0	510	507	0	0	36	0	
12	0	0	0	0	509	508	0	0	36	0	
13	0	0	0	0	510	508	0	0	36	0	
14	0	0	0	0	507	509	0	0	36	0	
15	0	0	0	0	509	510	0	0	36	0	
0	0	0	0	0	509	507	0	0	36	0	
1	0	0	0	0	508	507	0	0	36	0	
2	0	0	0	0	507	507	0	0	36	0	
3	0	0	0	0	509	507	0	0	36	0	
4	0	0	0	0	509	508	0	0	36	0	
5	0	0	0	0	509	506	0	0	36	0	
6	0	0	0	0	507	505	0	0	36	0	
7	0	0	0	0	509	506	0	0	36	0	
8	0	0	0	0	508	506	0	0	36	0	
9	0	0	0	0	510	507	0	0	36	0	
10	0	0	0	0	510	507	0	0	36	0	
11	0	0	0	0	511	508	0	0	36	0	
12	0	0	0	0	510	508	0	0	36	0	
13	0	0	0	0	512	509	0	0	36	0	
14	0	0	0	0	507	508	0	0	36	0	
15	0	0	0	0	512	508	0	0	36	0	
0	0	0	0	0	508	509	0	0	36	0	
1	0	0	0	0	508	509	0	0	36	1	
2	0	0	0	0	507	510	0	0	36	0	
3	0	0	0	0	504	510	0	0	36	0	
4	0	0	0	0	508	509	0	0	36	0	
5	0	0	0	0	506	508	0	0	36	0	
6	0	0	0	0	510	507	0	0	36	0	
7	0	0	0	0	507	505	0	0	36	0	
8	0	0	0	0	508	505	0	0	36	0	
9	0	0	0	0	508	505	0	0	36	0	
10	0	0	0	0	509	506	0	0	36	0	
11	0	0	0	0	509	508	0	483	36	0	
12	0	0	0	0	509	507	0	892	36	0	
13	0	0	0	0	509	508	0	1018	36	0	
14	0	0	0	0	511	508	0	1018	36	0	
15	0	0	0	0	508	506	0	1018	36	0	
0	0	0	0	0	509	508	0	1018	36	0	
1	0	0	0	0	510	508	0	1018	36	0	
2	0	0	0	0	508	505	0	1018	36	0	
3	0	0	0	0	508	506	0	1018	36	0	
4	0	0	0	0	509	507	0	1018	36	0	
5	0	0	0	0	510	507	0	1018	36	0	
6	0	0	0	0	506	507	0	1018	36	0	
7	0	0	0	0	508	508	0	1018	36	0	
8	0	0	0	0	509	509	0	1018	36	0	
9	0	0	0	0	509	511	0	1018	36	0	
10	0	0	0	0	510	510	0	1018	36	0	
11	0	0	0	0	510	508	0	1018	36	0	
12	0	0	0	0	511	509	0	1017	36	0	
13	0	0	0	0	510	507	0	1018	36	0	
14	0	0	0	0	510	508	0	1018	36	0	
15	0	0	0	0	511	508	0	1018	36	0	
0	0	0	0	0	510	509	0	1018	36	0	
1	0	0	0	0	507	508	0	1018	36	0	
2	0	0	0	0	510	507	0	1018	36	0	
3	0	0	0	0	508	508	0	1018	36	0	
4	0	0	0	0	507	508	0	1018	36	0	
5	0	0	0	0	508	507	0	1018	36	0	
6	0	0	0	0	508	508	0	1018	36	0	
7	0	0	0	0	508	510	0	1018	36	0	
8	0	0	0	0	508	510	0	1018	36	0	
9	0	0	0	0	510	511	0	1018	36	0	
10	0	0	0	0	510	511	0	1018	36	0	
11	0	0	0	0	510	510	0	1018	36	0	
12	0	0	0	0	511	510	0	1018	36	0	
13	0	0	0	0	507	510	0	1018	36	0	
14	0	0	0	0	508	511	0	1018	36	0	
15	0	0	0	0	511	509	0	1018	36	0	
0	0	0	0	0	509	509	0	1018	36	0	
1	0	0	0	0	509	508	0	1018	36	0	
2	0	0	0	0	507	509	0	1018	36	0	
3	0	0	0	0	511	510	0	1018	36	0	
4	0	0	0	0	510	509	0	1018	36	0	
5	0	0	0	0	507	509	0	1018	36	0	
6	0	0	0	0	509	508	0	1018	36	0	
7	0	0	0	0	507	509	0	1018	36	0	
8	0	0	0	0	508	511	0	1017	36	0	
9	0	0	0	0	512	509	0	576	36	0	
10	0	0	0	0	508	508	0	285	36	0	
11	0	0	0	0	511	507	0	85	36	0	
12	0	0	0	0	508	506	0	0	36	0	
13	0	0	0	0	510	506	0	0	36	0	
14	0	0	0	0	508	506	0	172	36	0	
15	0	0	0	0	509	508	0	465	36	0	
0	0	0	0	0	510	507	0	805	36	0	
1	0	0	0	0	510	507	0	1018	36	0	
2	0	0	0	0	510	507	0	1018	36	0	
3	0	0	0	0	510	508	0	1018	36	0	
4	0	0	0	0	509	510	0	1018	36	0	
5	0	0	0	0	508	510	0	1018	36	0	
6	0	0	0	0	508	510	0	1018	36	0	
7	0	0	0	0	508	509	0	1018	36	0	
8	0	0	0	0	507	507	0	1018	36	0	
9	0	0	0	0	510	507	0	1018	36	0	
10	0	0	0	0	510	507	0	1018	36	0	
11	0	0	0	0	508	507	0	1018	36	0	
12	0	0	0	0	511	507	0	1018	36	0	
13	0	0	0	0	511	505	0	1018	36	0	
14	0	0	0	0	508	504	0	1018	36	0	
15	0	0	0	0	510	506	0	1018	36	0	
0	0	0	0	0	508	508	0	1018	36	0	
1	0	0	0	0	509	510	0	1018	36	0	
2	0	0	0	0	507	512	0	1018	36	0	
3	0	0	0	0	509	513	0	1018	36	0	
4	0	0	0	0	508	512	0	1018	36	0	
5	0	0	0	0	509	511	0	1018	36	0	
6	0	0	0	0	509	510	0	1018	36	0	
7	0	0	0	0	508	510	0	1018	36	0	
8	0	0	0	0	508	511	0	1018	36	0	
9	0	0	0	0	509	510	0	1018	36	0	
10	0	0	0	0	509	510	0	1018	36	0	
11	0	0	0	0	511	509	0	1018	36	0	
12	0	0	0	0	513	510	0	1018	36	0	
13	0	0	0	0	511	508	0	1018	36	0	
14	0	0	0	0	511	509	0	1018	36	0	
15	0	0	0	0	510	510	0	1017	36	0	
0	0	0	0	0	509	510	0	1017	36	0	
1	0	0	0	0	512	510	0	901	36	0	
2	0	0	0	0	513	510	0	733	36	0	
3	0	0	0	0	510	508	0	426	36	0	
4	0	0	0	0	507	507	0	104	36	0	
5	0	0	0	0	508	507	0	0	36	0	
6	0	0	0	0	507	506	0	0	36	0	
7	0	0	0	0	508	507	0	0	36	0	
8	0	0	0	0	507	508	0	0	36	0	
9	0	0	0	0	505	507	0	0	36	0	
10	0	0	0	0	506	508	0	0	36	0	
11	0	0	0	0	506	506	0	0	36	0	
12	0	0	0	0	507	508	0	0	36	0	
13	0	0	0	0	509	507	0	0	36	0	
14	0	0	0	0	510	507	0	0	36	0	
15	0	0	0	0	510	508	0	0	36	0	
0	0	0	0	0	509	508	0	0	36	0	
1	0	0	0	0	511	509	0	0	36	0	
2	0	0	0	0	512	510	0	0	36	0	
3	0	0	0	0	510	511	0	0	36	0	
4	0	0	0	0	509	511	0	0	36	0	
5	0	0	0	0	507	508	0	0	36	0	
6	0	0	0	0	509	507	0	0	36	0	
7	0	0	0	0	509	509	0	0	36	0	
8	0	0	0	0	508	507	0	0	36	0	
9	0	0	0	0	509	507	0	0	36	0	
10	0	0	0	0	510	506	0	0	36	0	
11	0	0	0	0	510	508	0	0	36	0	
12	0	0	0	0	510	508	0	0	36	0	
13	0	0	0	0	507	509	0	0	36	0	
14	0	0	0	0	508	508	0	0	36	0	
15	0	0	0	0	509	508	0	0	36	0	
0	0	0	0	0	511	506	0	0	36	0	
1	0	0	0	0	511	507	0	0	36	0	
2	0	0	0	0	511	508	0	0	36	0	
3	0	0	0	0	510	510	0	0	36	0	
4	0	0	0	0	511	508	0	0	36	0	
5	0	0	0	0	510	509	0	0	36	0	
6	0	0	0	0	512	509	0	0	36	0	
7	0	0	0	0	508	508	0	0	36	0	
8	0	0	0	0	508	508	0	0	36	0	
9	0	0	0	0	507	506	0	0	36	0	
10	0	0	0	0	507	507	0	0	36	0	
11	0	0	0	0	508	507	0	0	36	0	
12	0	0	0	0	509	507	0	0	36	0	
13	0	0	0	0	508	508	0	0	36	0	
14	0	0	0	0	509	509	0	0	36	0	
15	0	0	0	0	510	509	0	0	36	0	
0	0	0	0	0	507	507	0	0	36	0	
1	0	0	0	0	510	506	0	0	36	0	
2	0	0	0	0	509	506	0	0	36	0	
3	0	0	0	0	510	506	0	0	36	0	
4	0	0	0	0	510	506	0	0	36	0	
5	0	0	0	0	509	506	0	0	36	0	
6	0	0	0	0	510	506	0	0	36	0	
7	0	0	0	0	511	506	0	0	36	0	
8	0	0	0	0	508	507	0	0	36	0	
9	0	0	0	0	508	508	0	0	36	0	
10	0	0	0	0	511	508	0	83	36	0	
11	0	0	0	0	507	507	0	214	36	0	
12	0	0	0	0	508	509	0	314	36	0	
13	0	0	0	0	509	509	0	454	36	0	
14	0	0	0	0	508	508	0	484	36	0	
15	0	0	0	0	510	510	0	509	36	0	
0	0	0	0	0	508	510	0	547	36	0	
1	0	0	0	0	506	509	0	589	36	0	
2	0	0	0	0	510	510	0	720	36	0	
3	0	0	0	0	510	510	0	777	36	0	
4	0	0	0	0	509	508	0	734	36	0	
5	0	0	0	0	507	507	0	695	36	0	
6	0	0	0	0	512	508	0	632	36	0	
7	0	0	0	0	511	508	0	568	36	0	
8	0	0	0	0	508	508	0	516	36	0	
9	0	0	0	0	506	509	0	536	36	0	
10	0	0	0	0	507	508	0	437	36	0	
11	0	0	0	0	506	508	0	343	36	0	
12	0	0	0	0	505	508	0	295	36	0	
13	0	0	0	0	508	508	0	333	36	0	
14	0	0	0	0	509	508	0	506	36	0	
15	0	0	0	0	508	507	0	638	36	0	
0	0	0	0	0	510	508	0	754	36	0	
1	0	0	0	0	507	508	0	759	36	0	
2	0	0	0	0	509	509	0	738	36	0	
3	0	0	0	0	511	507	0	781	36	0	
4	0	0	0	0	508	505	0	907	36	0	
5	0	0	0	0	512	504	0	1017	36	0	
6	0	0	0	0	511	503	0	1018	36	0	
7	0	0	0	0	512	503	0	1018	36	0	
8	0	0	0	0	511	503	0	1018	36	0	
9	0	0	0	0	508	504	0	1018	36	0	
10	0	0	0	0	509	505	0	1017	36	0	
11	0	0	0	0	510	507	0	1017	36	0	
12	0	0	0	0	510	505	0	1018	36	0	
13	0	0	0	0	510	505	0	778	36	0	
14	0	0	0	0	507	504	0	599	36	0	
15	0	0	0	0	510	503	0	436	36	0	
0	0	0	0	0	507	503	0	275	36	0	
1	0	0	0	0	510	504	0	100	36	0	
2	0	0	0	0	511	506	0	0	36	0	
3	0	0	0	0	508	505	0	0	36	0	
4	0	0	0	0	508	508	0	0	36	0	
5	0	0	0	0	508	507	0	0	36	0	
6	0	0	0	0	508	504	0	0	36	0	
7	0	0	0	0	510	505	0	0	36	0	
8	0	0	0	0	508	505	0	0	36	0	
9	0	0	0	0	510	506	0	0	36	0	
10	0	0	0	0	508	506	0	0	36	0	
11	0	0	0	0	508	506	0	0	36	0	
12	0	0	0	0	510	506	0	0	36	0	
13	0	0	0	0	506	506	0	0	36	0	
14	0	0	0	0	511	506	0	0	36	0	
15	0	0	0	0	511	506	0	0	36	0	
0	0	0	0	0	511	505	0	0	36	0	
1	0	0	0	0	513	505	0	0	36	0	
2	0	0	0	0	510	506	0	0	36	0	
3	0	0	0	0	509	506	0	0	36	0	
4	0	0	0	0	509	505	0	118	36	0	
5	0	0	0	0	507	505	0	181	36	0	
6	0	0	0	0	508	505	0	220	36	0	
7	0	0	0	0	510	507	0	285	36	0	
8	0	0	0	0	510	507	0	464	36	0	
9	0	0	0	0	509	507	0	643	36	0	
10	0	0	0	0	508	508	0	820	36	0	
11	0	0	0	0	508	507	0	1002	36	0	
12	0	0	0	0	508	509	0	1018	36	0	
13	0	0	0	0	510	511	0	1017	36	0	
14	0	0	0	0	510	510	0	1018	36	0	
15	0	0	0	0	511	510	0	1018	36	0	
0	0	0	0	0	512	511	0	1018	36	0	
1	0	0	0	0	511	509	0	1018	36	0	
2	0	0	0	0	509	509	0	1017	36	0	
3	0	0	0	0	510	508	0	1017	36	0	
4	0	0	0	0	511	508	0	891	36	0	
5	0	0	0	0	511	509	0	804	36	0	
6	0	0	0	0	510	510	0	699	36	0	
7	0	0	0	0	511	510	0	639	36	0	
8	0	0	0	0	510	508	0	717	36	0	
9	0	0	0	0	510	508	0	790	36	0	
10	0	0	0	0	509	509	0	831	36	0	
11	0	0	0	0	508	509	0	970	36	0	
12	0	0	0	0	509	508	0	1017	36	0	
13	0	0	0	0	508	508	0	1018	36	0	
14	0	0	0	0	507	507	0	1018	36	0	
15	0	0	0	0	508	508	0	1018	36	0	
0	0	0	0	0	508	507	0	1018	36	0	
1	0	0	0	0	510	508	0	1018	36	0	
2	0	0	0	0	509	507	0	1018	36	0	
3	0	0	0	0	507	507	0	1018	36	0	
4	0	0	0	0	509	507	0	1018	36	0	
5	0	0	0	0	508	507	0	1018	36	0	
6	0	0	0	0	507	506	0	1018	36	0	
7	0	0	0	0	508	505	0	1018	36	0	
8	0	0	0	0	510	506	0	1018	36	0	
9	0	0	0	0	508	508	0	1018	36	0	
10	0	0	0	0	507	507	0	1018	36	0	
11	0	0	0	0	508	508	0	1018	36	0	
12	0	0	0	0	509	508	0	1018	36	0	
13	0	0	0	0	507	509	0	1018	36	0	
14	0	0	0	0	508	508	0	1018	36	0	
15	0	0	0	0	509	509	0	1018	36	0	
0	0	0	0	0	510	510	0	1018	36	0	
1	0	0	0	0	509	509	0	1018	36	0	
2	0	0	0	0	511	509	0	1018	36	0	
3	0	0	0	0	510	511	0	1018	36	0	
4	0	0	0	0	510	512	0	1018	36	0	
5	0	0	0	0	510	512	0	1018	36	0	
6	0	0	0	0	510	509	0	1018	36	0	
7	0	0	0	0	510	510	0	1018	36	0	
8	0	0	0	0	507	508	0	1017	36	0	
9	0	0	0	0	508	508	0	1018	36	0	
10	0	0	0	0	508	509	0	1018	36	0	
11	0	0	0	0	510	507	0	1018	36	0	
12	0	0	0	0	508	508	0	1018	36	0	
13	0	0	0	0	512	508	0	1018	36	0	
14	0	0	0	0	508	507	0	1018	36	0	
15	0	0	0	0	508	508	0	1018	36	0	
0	0	0	0	0	510	507	0	1018	36	0	
1	0	0	0	0	511	507	0	1018	36	0	
2	0	0	0	0	509	508	0	1018	36	0	
3	0	0	0	0	508	508	0	1018	36	0	
4	0	0	0	0	510	507	0	1018	36	0	
5	0	0	0	0	511	505	0	1018	36	0	
6	0	0	0	0	508	505	0	1018	36	0	
7	0	0	0	0	511	507	0	1018	36	0	
8	0	0	0	0	510	508	0	1018	36	0	
9	0	0	0	0	511	508	0	1018	36	0	
10	0	0	0	0	510	509	0	1018	36	0	
11	0	0	0	0	511	508	0	1018	36	0	
12	0	0	0	0	509	508	0	1018	36	0	
13	0	0	0	0	508	508	0	1018	36	0	
14	0	0	0	0	506	509	0	1018	36	0	
15	0	0	0	0	508	510	0	1018	36	0	
0	0	0	0	0	507	507	0	1018	36	0	
1	0	0	0	0	508	506	0	1018	36	0	
2	0	0	0	0	509	507	0	1018	36	0	
3	0	0	0	0	509	507	0	1018	36	0	
4	0	0	0	0	511	507	0	1018	36	0	
5	0	0	0	0	510	507	0	1018	36	0	
6	0	0	0	0	512	508	0	1018	36	0	
7	0	0	0	0	509	508	0	1018	36	0	
8	0	0	0	0	511	508	0	1018	36	0	
9	0	0	0	0	506	508	0	1018	36	0	
10	0	0	0	0	510	508	0	1018	36	0	
11	0	0	0	0	508	507	0	1018	36	0	
12	0	0	0	0	507	508	0	1018	36	0	
13	0	0	0	0	511	509	0	1017	36	0	
14	0	0	0	0	508	509	0	1017	36	0	
15	0	0	0	0	508	509	0	807	36	0	
0	0	0	0	0	508	508	0	613	36	0	
1	0	0	0	0	508	508	0	672	36	0	
2	0	0	0	0	509	508	0	803	36	0	
3	0	0	0	0	510	508	0	1013	36	0	
4	0	0	0	0	509	507	0	1018	36	0	
5	0	0	0	0	511	508	0	1018	36	0	
6	0	0	0	0	508	506	0	1018	36	0	
7	0	0	0	0	511	506	0	1018	36	0	
8	0	0	0	0	511	507	0	1018	36	0	
9	0	0	0	0	512	508	0	1018	36	0	
10	0	0	0	0	512	507	0	1018	36	0	
11	0	0	0	0	511	506	0	1018	36	0	
12	0	0	0	0	510	504	0	1018	36	0	
13	0	0	0	0	511	505	0	1018	36	0	
14	0	0	0	0	510	504	0	1018	36	0	
15	0	0	0	0	509	505	0	1018	36	0	
0	0	0	0	0	508	504	0	1018	36	0	
1	0	0	0	0	505	504	0	1018	36	0	
2	0	0	0	0	508	504	0	1018	36	0	
3	0	0	0	0	509	505	0	1018	36	0	
4	0	0	0	0	510	505	0	1018	36	0	
5	0	0	0	0	508	505	0	1018	36	0	
6	0	0	0	0	510	507	0	1018	36	0	
7	0	0	0	0	508	507	0	1018	36	0	
8	0	0	0	0	509	509	0	1018	36	0	
9	0	0	0	0	511	507	0	1018	36	0	
10	0	0	0	0	510	508	0	1018	36	0	
11	0	0	0	0	511	509	0	1018	36	0	
12	0	0	0	0	510	509	0	1018	36	0	
13	0	0	0	0	508	507	0	1018	36	0	
14	0	0	0	0	511	508	0	1018	36	0	
15	0	0	0	0	508	508	0	1018	36	0	
0	0	0	0	0	505	507	0	1018	36	0	
1	0	0	0	0	508	505	0	1018	36	0	
2	0	0	0	0	511	508	0	1018	36	0	
3	0	0	0	0	508	508	0	1018	36	0	
4	0	0	0	0	508	509	0	1018	36	0	
5	0	0	0	0	508	508	0	1018	36	0	
6	0	0	0	0	510	507	0	1018	36	0	
7	0	0	0	0	509	508	0	1018	36	0	
8	0	0	0	0	508	508	0	1017	36	0	
9	0	0	0	0	509	506	0	761	36	0	
10	0	0	0	0	508	506	0	621	36	0	
11	0	0	0	0	509	505	0	465	36	0	
12	0	0	0	0	509	506	0	294	36	0	
13	0	0	0	0	511	505	0	114	36	0	
14	0	0	0	0	508	505	0	0	36	0	
15	0	0	0	0	509	506	0	0	36	0	
0	0	0	0	0	507	504	0	0	36	0	
1	0	0	0	0	508	506	0	0	36	0	
2	0	0	0	0	509	508	0	0	36	0	
3	0	0	0	0	507	508	0	0	36	0	
4	0	0	0	0	505	507	0	0	36	0	
5	0	0	0	0	508	507	0	0	36	0	
6	0	0	0	0	510	506	0	0	36	0	
7	0	0	0	0	512	508	0	0	36	0	
8	0	0	0	0	512	507	0	0	36	0	
9	0	0	0	0	509	508	0	0	36	0	
10	0	0	0	0	509	508	0	0	36	0	
11	0	0	0	0	511	509	0	0	36	0	
12	0	0	0	0	510	508	0	0	36	0	
13	0	0	0	0	510	509	0	0	36	0	
14	0	0	0	0	511	508	0	0	36	0	
15	0	0	0	0	511	507	0	0	36	0	
0	0	0	0	0	508	506	0	0	36	0	
1	0	0	0	0	507	506	0	0	36	0	
2	0	0	0	0	507	506	0	0	36	0	
3	0	0	0	0	508	507	0	0	36	0	
4	0	0	0	0	510	507	0	0	36	0	
5	0	0	0	0	510	507	0	0	36	0	
6	0	0	0	0	510	507	0	0	36	0	
7	0	0	0	0	509	508	0	204	36	0	
8	0	0	0	0	511	509	0	708	36	0	
9	0	0	0	0	507	509	0	1017	36	0	
10	0	0	0	0	507	509	0	1018	36	0	
11	0	0	0	0	512	508	0	1018	36	0	
12	0	0	0	0	510	508	0	1018	36	0	
13	0	0	0	0	510	509	0	1018	36	0	
14	0	0	0	0	510	507	0	1018	36	0	
15	0	0	0	0	508	505	0	1018	36	0	
0	0	0	0	0	509	507	0	1018	36	0	
1	0	0	0	0	508	508	0	1018	36	0	
2	0	0	0	0	508	508	0	1018	36	0	
3	0	0	0	0	508	508	0	1017	36	0	
4	0	0	0	0	510	508	0	716	36	0	
5	0	0	0	0	511	508	0	532	36	0	
6	0	0	0	0	509	508	0	321	36	0	
7	0	0	0	0	509	507	0	77	36	0	
8	0	0	0	0	510	506	0	0	36	0	
9	0	0	0	0	511	506	0	0	36	0	
10	0	0	0	0	509	507	0	0	36	0	
11	0	0	0	0	508	506	0	0	36	0	
12	0	0	0	0	508	505	0	0	36	0	
13	0	0	0	0	508	505	0	0	36	0	
14	0	0	0	0	508	505	0	0	36	0	
15	0	0	0	0	509	504	0	0	36	0	
0	0	0	0	0	509	506	0	0	36	0	
1	0	0	0	0	508	505	0	0	36	0	
2	0	0	0	0	508	505	0	0	36	0	
3	0	0	0	0	504	507	0	0	36	0	
4	0	0	0	0	506	507	0	0	36	0	
5	0	0	0	0	505	510	0	0	36	0	
6	0	0	0	0	506	511	0	0	36	0	
7	0	0	0	0	509	510	0	0	36	0	
8	0	0	0	0	510	509	0	0	36	0	
9	0	0	0	0	510	507	0	0	36	0	
10	0	0	0	0	509	508	0	0	36	0	
11	0	0	0	0	509	509	0	0	36	0	
12	0	0	0	0	508	509	0	0	36	0	
13	0	0	0	0	510	508	0	0	36	0	
14	0	0	0	0	511	511	0	0	36	0	
15	0	0	0	0	510	511	0	0	36	0	
0	0	0	0	0	512	511	0	0	36	0	
1	0	0	0	0	511	509	0	0	36	0	
2	0	0	0	0	507	507	0	0	36	0	
3	0	0	0	0	510	506	0	0	36	0	
4	0	0	0	0	506	507	0	0	36	0	
5	0	0	0	0	508	510	0	0	36	0	
6	0	0	0	0	508	510	0	0	36	0	
7	0	0	0	0	509	510	0	0	36	0	
8	0	0	0	0	511	509	0	0	36	0	
9	0	0	0	0	511	507	0	0	36	0	
10	0	0	0	0	510	508	0	0	36	1	
11	0	0	0	0	507	508	0	0	36	0	
12	0	0	0	0	510	508	0	0	36	0	
13	0	0	0	0	512	509	0	0	36	0	
14	0	0	0	0	510	508	0	0	36	0	
15	0	0	0	0	510	506	0	0	36	0	
0	0	0	0	0	506	506	0	0	36	0	
1	0	0	0	0	507	507	0	0	36	0	
2	0	0	0	0	508	506	0	0	36	0	
3	0	0	0	0	506	505	0	0	36	0	
4	0	0	0	0	508	505	0	0	36	0	
5	0	0	0	0	510	506	0	0	36	0	
6	0	0	0	0	509	505	0	0	36	0	
7	0	0	0	0	510	506	0	0	36	0	
8	0	0	0	0	509	508	0	0	36	0	
9	0	0	0	0	509	508	0	0	36	0	
10	0	0	0	0	508	507	0	0	36	0	
11	0	0	0	0	507	507	0	0	36	0	
12	0	0	0	0	510	507	0	0	36	0	
13	0	0	0	0	506	507	0	0	36	0	
14	0	0	0	0	510	508	0	0	36	0	
15	0	0	0	0	510	508	0	0	36	0	
0	0	0	0	0	508	508	0	0	36	0	
1	0	0	0	0	508	509	0	0	36	0	
2	0	0	0	0	508	510	0	0	36	0	
3	0	0	0	0	507	509	0	0	36	0	
4	0	0	0	0	510	507	0	68	36	0	
5	0	0	0	0	508	507	0	62	36	0	
6	0	0	0	0	511	507	0	0	36	0	
7	0	0	0	0	511	507	0	0	36	0	
8	0	0	0	0	511	507	0	0	36	0	
9	0	0	0	0	510	507	0	0	36	0	
10	0	0	0	0	508	506	0	0	36	0	
11	0	0	0	0	512	506	0	0	36	0	
12	0	0	0	0	509	507	0	0	36	0	
13	0	0	0	0	509	508	0	0	36	0	
14	0	0	0	0	508	507	0	0	36	0	
15	0	0	0	0	507	504	0	0	36	0	
0	0	0	0	0	509	505	0	0	36	0	
1	0	0	0	0	509	505	0	0	36	0	
2	0	0	0	0	511	505	0	0	36	0	
3	0	0	0	0	508	504	0	0	36	0	
4	0	0	0	0	507	505	0	0	36	0	
5	0	0	0	0	510	505	0	0	36	0	
6	0	0	0	0	509	507	0	0	36	0	
7	0	0	0	0	511	506	0	225	36	0	
8	0	0	0	0	508	506	0	443	36	0	
9	0	0	0	0	508	507	0	535	36	0	
10	0	0	0	0	511	508	0	678	36	0	
11	0	0	0	0	508	511	0	826	36	0	
12	0	0	0	0	509	509	0	1017	36	0	
13	0	0	0	0	510	509	0	1018	36	0	
14	0	0	0	0	505	510	0	1018	36	0	
15	0	0	0	0	511	510	0	1018	36	0	
0	0	0	0	0	511	510	0	1018	36	0	
1	0	0	0	0	512	508	0	1018	36	0	
2	0	0	0	0	512	508	0	1018	36	0	
3	0	0	0	0	512	507	0	1018	36	0	
4	0	0	0	0	509	506	0	1018	36	0	
5	0	0	0	0	507	508	0	1018	36	0	
6	0	0	0	0	508	508	0	1018	36	0	
7	0	0	0	0	507	508	0	1018	36	0	
8	0	0	0	0	506	510	0	1018	36	0	
9	0	0	0	0	505	510	0	1017	36	0	
10	0	0	0	0	507	510	0	1018	36	0	
11	0	0	0	0	508	512	0	1018	36	0	
12	0	0	0	0	510	511	0	1018	36	0	
13	0	0	0	0	507	509	0	1018	36	0	
14	0	0	0	0	512	509	0	1018	36	0	
15	0	0	0	0	509	507	0	1018	36	0	
0	0	0	0	0	511	508	0	1018	36	0	
1	0	0	0	0	511	508	0	1018	36	0	
2	0	0	0	0	511	508	0	1018	36	0	
3	0	0	0	0	507	507	0	1018	36	0	
4	0	0	0	0	510	509	0	1018	36	0	
5	0	0	0	0	509	510	0	1018	36	0	
6	0	0	0	0	510	508	0	1018	36	0	
7	0	0	0	0	510	510	0	1018	36	0	
8	0	0	0	0	510	509	0	1017	36	0	
9	0	0	0	0	509	508	0	1018	36	0	
10	0	0	0	0	511	508	0	1017	36	0	
11	0	0	0	0	508	507	0	1017	36	0	
12	0	0	0	0	510	507	0	808	36	0	
13	0	0	0	0	509	505	0	641	36	0	
14	0	0	0	0	507	504	0	451	36	0	
15	0	0	0	0	509	505	0	285	36	0	
0	0	0	0	0	509	505	0	302	36	0	
1	0	0	0	0	510	505	0	575	36	0	
2	0	0	0	0	506	505	0	1012	36	0	
3	0	0	0	0	506	505	0	1018	36	0	
4	0	0	0	0	508	507	0	1018	36	0	
5	0	0	0	0	509	508	0	1018	36	0	
6	0	0	0	0	508	508	0	1018	36	0	
7	0	0	0	0	507	509	0	1018	36	0	
8	0	0	0	0	507	507	0	1018	36	0	
9	0	0	0	0	508	507	0	1018	36	0	
10	0	0	0	0	507	508	0	1018	36	0	
11	0	0	0	0	509	507	0	1018	36	0	
12	0	0	0	0	508	506	0	1018	36	0	
13	0	0	0	0	506	506	0	1018	36	0	
14	0	0	0	0	509	507	0	1018	36	0	
15	0	0	0	0	510	507	0	1018	36	0	
0	0	0	0	0	511	508	0	1018	36	0	
1	0	0	0	0	512	507	0	1018	36	0	
2	0	0	0	0	513	507	0	1018	36	0	
3	0	0	0	0	512	505	0	1018	36	0	
4	0	0	0	0	512	505	0	1018	36	0	
5	0	0	0	0	508	505	0	1018	36	0	
6	0	0	0	0	509	504	0	1018	36	0	
7	0	0	0	0	507	505	0	1018	36	0	
8	0	0	0	0	509	507	0	1018	36	0	
9	0	0	0	0	511	508	0	1018	36	0	
10	0	0	0	0	509	508	0	1018	36	0	
11	0	0	0	0	511	507	0	1018	36	0	
12	0	0	0	0	510	508	0	1018	36	0	
13	0	0	0	0	510	508	0	1018	36	0	
14	0	0	0	0	510	507	0	1018	36	0	
15	0	0	0	0	507	506	0	1018	36	0	
0	0	0	0	0	506	507	0	1018	36	0	
1	0	0	0	0	507	508	0	1018	36	0	
2	0	0	0	0	509	508	0	1018	36	0	
3	0	0	0	0	508	508	0	1018	36	0	
4	0	0	0	0	509	508	0	1018	36	0	
5	0	0	0	0	510	509	0	1018	36	0	
6	0	0	0	0	508	509	0	1018	36	0	
7	0	0	0	0	507	508	0	1018	36	0	
8	0	0	0	0	508	508	0	1018	36	0	
9	0	0	0	0	507	508	0	1018	36	0	
10	0	0	0	0	508	507	0	1018	36	0	
11	0	0	0	0	506	508	0	1018	36	0	
12	0	0	0	0	509	509	0	1018	36	0	
13	0	0	0	0	511	508	0	1018	36	0	
14	0	0	0	0	510	511	0	1017	36	0	
15	0	0	0	0	510	511	0	1018	36	0	
0	0	0	0	0	508	511	0	1018	36	0	
1	0	0	0	0	510	510	0	1017	36	0	
2	0	0	0	0	509	509	0	1017	36	0	
3	0	0	0	0	508	509	0	776	36	0	
4	0	0	0	0	511	510	0	565	36	0	
5	0	0	0	0	510	509	0	330	36	0	
6	0	0	0	0	509	510	0	5	36	0	
7	0	0	0	0	509	509	0	0	36	0	
8	0	0	0	0	508	510	0	0	36	0	
9	0	0	0	0	507	509	0	0	36	0	
10	0	0	0	0	506	509	0	0	36	0	
11	0	0	0	0	508	510	0	0	36	0	
12	0	0	0	0	508	510	0	0	36	0	
13	0	0	0	0	509	511	0	0	36	0	
14	0	0	0	0	510	510	0	0	36	0	
15	0	0	0	0	509	509	0	0	36	0	
0	0	0	0	0	510	510	0	0	36	0	
1	0	0	0	0	507	509	0	0	36	0	
2	0	0	0	0	508	508	0	0	36	0	
3	0	0	0	0	508	507	0	0	36	0	
4	0	0	0	0	508	508	0	0	36	0	
5	0	0	0	0	509	508	0	0	36	0	
6	0	0	0	0	512	508	0	0	36	0	
7	0	0	0	0	511	507	0	0	36	0	
8	0	0	0	0	508	507	0	0	36	0	
9	0	0	0	0	510	507	0	0	36	0	
10	0	0	0	0	509	506	0	0	36	0	
11	0	0	0	0	510	505	0	0	36	0	
12	0	0	0	0	511	505	0	0	36	0	
13	0	0	0	0	511	507	0	0	36	0	
14	0	0	0	0	510	506	0	0	36	0	
15	0	0	0	0	510	506	0	0	36	0	
0	0	0	0	0	510	503	0	0	36	0	
1	0	0	0	0	511	504	0	0	36	0	
2	0	0	0	0	512	504	0	0	36	0	
3	0	0	0	0	509	502	0	0	36	0	
4	0	0	0	0	509	502	0	0	36	0	
5	0	0	0	0	509	502	0	0	36	0	
6	0	0	0	0	510	504	0	0	36	0	
7	0	0	0	0	509	505	0	0	36	0	
8	0	0	0	0	508	504	0	0	36	0	
9	0	0	0	0	507	506	0	0	36	0	
10	0	0	0	0	507	507	0	0	36	0	
11	0	0	0	0	505	505	0	0	36	0	
12	0	0	0	0	509	506	0	0	36	0	
13	0	0	0	0	508	505	0	0	36	0	
14	0	0	0	0	509	507	0	0	36	0	
15	0	0	0	0	508	507	0	0	36	0	
0	0	0	0	0	509	507	0	0	36	0	
1	0	0	0	0	511	508	0	0	36	0	
2	0	0	0	0	507	505	0	0	36	0	
3	0	0	0	0	508	507	0	0	36	0	
4	0	0	0	0	510	508	0	0	36	0	
5	0	0	0	0	510	505	0	0	36	0	
6	0	0	0	0	510	506	0	0	36	0	
7	0	0	0	0	508	507	0	0	36	0	
8	0	0	0	0	511	509	0	0	36	0	
9	0	0	0	0	507	508	0	0	36	0	
10	0	0	0	0	510	509	0	0	36	0	
11	0	0	0	0	510	508	0	0	36	0	
12	0	0	0	0	508	507	0	0	36	0	
13	0	0	0	0	506	508	0	0	36	0	
14	0	0	0	0	511	508	0	0	36	0	
15	0	0	0	0	509	509	0	0	36	0	
0	0	0	0	0	509	508	0	0	36	0	
1	0	0	0	0	508	511	0	0	36	0	
2	0	0	0	0	510	512	0	0	36	0	
3	0	0	0	0	511	511	0	0	36	0	
4	0	0	0	0	508	512	0	0	36	0	
5	0	0	0	0	511	512	0	0	36	0	
6	0	0	0	0	510	510	0	0	36	0	
7	0	0	0	0	510	509	0	0	36	0	
8	0	0	0	0	509	508	0	0	36	0	
9	0	0	0	0	507	509	0	0	36	0	
10	0	0	0	0	507	508	0	0	36	0	
11	0	0	0	0	508	508	0	0	36	0	
12	0	0	0	0	509	508	0	0	36	0	
13	0	0	0	0	506	506	0	0	36	0	
14	0	0	0	0	508	505	0	0	36	0	
15	0	0	0	0	508	504	0	0	36	0	
0	0	0	0	0	507	504	0	0	36	0	
1	0	0	0	0	508	506	0	0	36	0	
2	0	0	0	0	507	506	0	0	36	0	
3	0	0	0	0	507	506	0	0	36	0	
4	0	0	0	0	508	505	0	0	36	0	
5	0	0	0	0	509	504	0	0	36	0	
6	0	0	0	0	509	506	0	0	36	0	
7	0	0	0	0	509	505	0	0	36	0	
8	0	0	0	0	508	504	0	0	36	0	
9	0	0	0	0	511	505	0	0	36	0	
10	0	0	0	0	508	507	0	0	36	0	
11	0	0	0	0	510	506	0	248	36	0	
12	0	0	0	0	510	507	0	391	36	0	
13	0	0	0	0	508	507	0	545	36	0	
14	0	0	0	0	510	508	0	530	36	0	
15	0	0	0	0	509	509	0	523	36	0	
0	0	0	0	0	509	510	0	524	36	0	
1	0	0	0	0	509	508	0	502	36	0	
2	0	0	0	0	511	509	0	545	36	0	
3	0	0	0	0	512	510	0	587	36	0	
4	0	0	0	0	508	510	0	619	36	0	
5	0	0	0	0	509	510	0	641	36	0	
6	0	0	0	0	509	509	0	559	36	0	
7	0	0	0	0	510	508	0	487	36	0	
8	0	0	0	0	510	508	0	566	36	0	
9	0	0	0	0	508	505	0	535	36	0	
10	0	0	0	0	510	506	0	512	36	0	
11	0	0	0	0	509	507	0	634	36	0	
12	0	0	0	0	508	507	0	779	36	0	
13	0	0	0	0	512	509	0	955	36	0	
14	0	0	0	0	508	509	0	1018	36	0	
15	0	0	0	0	508	509	0	1018	36	0	
0	0	0	0	0	508	508	0	1018	36	0	
1	0	0	0	0	509	509	0	1018	36	0	
2	0	0	0	0	511	507	0	1018	36	0	
3	0	0	0	0	508	508	0	1018	36	0	
4	0	0	0	0	510	508	0	1018	36	0	
5	0	0	0	0	508	507	0	1018	36	0	
6	0	0	0	0	508	507	0	1017	36	0	
7	0	0	0	0	510	509	0	1018	36	0	
8	0	0	0	0	509	509	0	1018	36	0	
9	0	0	0	0	512	510	0	1018	36	0	
10	0	0	0	0	511	509	0	1018	36	0	
11	0	0	0	0	511	508	0	1018	36	0	
12	0	0	0	0	510	507	0	1018	36	0	
13	0	0	0	0	503	505	0	1018	36	0	
14	0	0	0	0	508	506	0	1018	36	0	
15	0	0	0	0	508	505	0	1018	36	0	
0	0	0	0	0	509	507	0	1018	36	0	
1	0	0	0	0	510	507	0	1018	36	0	
2	0	0	0	0	510	507	0	1018	36	0	
3	0	0	0	0	509	507	0	1018	36	0	
4	0	0	0	0	510	506	0	1018	36	0	
5	0	0	0	0	508	507	0	1018	36	0	
6	0	0	0	0	509	507	0	1018	36	0	
7	0	0	0	0	509	508	0	1018	36	0	
8	0	0	0	0	512	510	0	1018	36	0	
9	0	0	0	0	510	510	0	1018	36	0	
10	0	0	0	0	509	510	0	1017	36	0	
11	0	0	0	0	508	511	0	1018	36	0	
12	0	0	0	0	508	510	0	1018	36	0	
13	0	0	0	0	508	510	0	753	36	0	
14	0	0	0	0	506	510	0	732	36	0	
15	0	0	0	0	509	509	0	748	36	0	
0	0	0	0	0	509	508	0	615	36	0	
1	0	0	0	0	509	508	0	487	36	0	
2	0	0	0	0	510	508	0	326	36	0	
3	0	0	0	0	509	506	0	188	36	0	
4	0	0	0	0	509	507	0	34	36	0	
5	0	0	0	0	509	506	0	0	36	0	
6	0	0	0	0	510	505	0	0	36	0	
7	0	0	0	0	507	507	0	0	36	0	
8	0	0	0	0	508	508	0	0	36	0	
9	0	0	0	0	511	506	0	0	36	0	
10	0	0	0	0	509	507	0	0	36	0	
11	0	0	0	0	510	507	0	0	36	0	
12	0	0	0	0	511	507	0	0	36	0	
13	0	0	0	0	509	507	0	0	36	0	
14	0	0	0	0	508	508	0	0	36	0	
15	0	0	0	0	509	508	0	0	36	0	
0	0	0	0	0	507	506	0	0	36	0	
1	0	0	0	0	508	507	0	0	36	0	
2	0	0	0	0	509	507	0	0	36	0	
3	0	0	0	0	508	508	0	0	36	0	
4	0	0	0	0	510	507	0	0	36	0	
5	0	0	0	0	508	507	0	0	36	0	
6	0	0	0	0	509	508	0	0	36	0	
7	0	0	0	0	510	508	0	0	36	0	
8	0	0	0	0	508	509	0	0	36	0	
9	0	0	0	0	510	509	0	0	36	0	
10	0	0	0	0	510	508	0	0	36	0	
11	0	0	0	0	508	507	0	0	36	0	
12	0	0	0	0	510	506	0	0	36	0	
13	0	0	0	0	509	507	0	0	36	0	
14	0	0	0	0	510	506	0	0	36	0	
15	0	0	0	0	507	509	0	0	36	0	
0	0	0	0	0	511	509	0	0	36	0	
1	0	0	0	0	508	508	0	0	36	0	
2	0	0	0	0	508	509	0	0	36	0	
3	0	0	0	0	507	508	0	0	36	0	
4	0	0	0	0	507	508	0	0	36	0	
5	0	0	0	0	507	507	0	0	36	0	
6	0	0	0	0	510	509	0	0	36	0	
7	0	0	0	0	510	507	0	0	36	0	
8	0	0	0	0	511	507	0	0	36	0	
9	0	0	0	0	507	507	0	0	36	0	
10	0	0	0	0	509	506	0	0	36	0	
11	0	0	0	0	508	505	0	0	36	0	
12	0	0	0	0	507	505	0	0	36	0	
13	0	0	0	0	511	505	0	0	36	0	
14	0	0	0	0	509	506	0	0	36	0	
15	0	0	0	0	507	507	0	0	36	0	
0	0	0	0	0	506	507	0	0	36	0	
1	0	0	0	0	508	505	0	0	36	0	
2	0	0	0	0	509	506	0	0	36	0	
3	0	0	0	0	509	507	0	0	36	0	
4	0	0	0	0	508	507	0	0	36	0	
5	0	0	0	0	511	506	0	0	36	0	
6	0	0	0	0	509	506	0	0	36	0	
7	0	0	0	0	511	506	0	0	36	0	
8	0	0	0	0	510	506	0	0	36	0	
9	0	0	0	0	509	507	0	0	36	0	
10	0	0	0	0	511	507	0	0	36	0	
11	0	0	0	0	510	507	0	0	36	0	
12	0	0	0	0	512	505	0	0	36	0	
13	0	0	0	0	509	505	0	0	36	0	
14	0	0	0	0	508	506	0	0	36	0	
15	0	0	0	0	508	506	0	0	36	0	
0	0	0	0	0	506	506	0	0	36	0	
1	0	0	0	0	508	507	0	0	36	0	
2	0	0	0	0	507	508	0	0	36	0	
3	0	0	0	0	508	509	0	0	36	0	
4	0	0	0	0	507	509	0	0	36	0	
5	0	0	0	0	510	509	0	0	36	0	
6	0	0	0	0	511	511	0	0	36	0	
7	0	0	0	0	507	511	0	0	36	0	
8	0	0	0	0	510	511	0	0	36	0	
9	0	0	0	0	508	511	0	0	36	0	
10	0	0	0	0	509	512	0	0	36	0	
11	0	0	0	0	512	511	0	0	36	0	
12	0	0	0	0	511	510	0	0	36	0	
13	0	0	0	0	511	510	0	0	36	0	
14	0	0	0	0	509	510	0	0	36	0	
15	0	0	0	0	508	510	0	0	36	0	
0	0	0	0	0	510	509	0	0	36	0	
1	0	0	0	0	510	507	0	0	36	0	
2	0	0	0	0	508	507	0	0	36	0	
3	0	0	0	0	509	507	0	0	36	0	
4	0	0	0	0	508	508	0	0	36	0	
5	0	0	0	0	509	509	0	0	36	0	
6	0	0	0	0	508	509	0	0	36	0	
7	0	0	0	0	507	509	0	0	36	0	
8	0	0	0	0	507	508	0	0	36	0	
9	0	0	0	0	510	507	0	0	36	0	
10	0	0	0	0	510	506	0	0	36	0	
11	0	0	0	0	508	508	0	0	36	0	
12	0	0	0	0	511	508	0	0	36	0	
13	0	0	0	0	510	508	0	0	36	0	
14	0	0	0	0	509	508	0	103	36	0	
15	0	0	0	0	511	509	0	150	36	0	
0	0	0	0	0	507	509	0	62	36	0	
1	0	0	0	0	509	508	0	0	36	0	
2	0	0	0	0	508	508	0	0	36	0	
3	0	0	0	0	505	508	0	0	36	0	
4	0	0	0	0	507	509	0	0	36	0	
5	0	0	0	0	507	511	0	0	36	0	
6	0	0	0	0	510	511	0	0	36	0	
7	0	0	0	0	510	510	0	0	36	0	
8	0	0	0	0	508	511	0	0	36	0	
9	0	0	0	0	509	511	0	0	36	0	
10	0	0	0	0	506	510	0	0	36	0	
11	0	0	0	0	508	509	0	0	36	0	
12	0	0	0	0	511	510	0	0	36	0	
13	0	0	0	0	506	508	0	0	36	0	
14	0	0	0	0	512	508	0	0	36	0	
15	0	0	0	0	510	508	0	0	36	0	
0	0	0	0	0	512	508	0	0	36	0	
1	0	0	0	0	511	506	0	0	36	0	
2	0	0	0	0	509	507	0	0	36	0	
3	0	0	0	0	510	510	0	0	36	0	
4	0	0	0	0	506	511	0	0	36	0	
5	0	0	0	0	508	511	0	0	36	0	
6	0	0	0	0	508	511	0	0	36	0	
7	0	0	0	0	508	511	0	0	36	0	
8	0	0	0	0	508	511	0	0	36	0	
9	0	0	0	0	509	508	0	0	36	0	
10	0	0	0	0	509	507	0	0	36	0	
11	0	0	0	0	508	506	0	0	36	0	
12	0	0	0	0	509	505	0	0	36	0	
13	0	0	0	0	511	505	0	0	36	0	
14	0	0	0	0	510	505	0	0	36	0	
15	0	0	0	0	508	505	0	0	36	0	
0	0	0	0	0	510	504	0	0	36	0	
1	0	0	0	0	508	503	0	0	36	0	
2	0	0	0	0	508	504	0	0	36	0	
3	0	0	0	0	507	505	0	0	36	0	
4	0	0	0	0	505	507	0	0	36	0	
5	0	0	0	0	508	505	0	0	36	0	
6	0	0	0	0	508	504	0	0	36	0	
7	0	0	0	0	511	505	0	0	36	0	
8	0	0	0	0	509	507	0	0	36	0	
9	0	0	0	0	511	508	0	0	36	0	
10	0	0	0	0	511	509	0	0	36	0	
11	0	0	0	0	511	508	0	0	36	0	
12	0	0	0	0	509	510	0	0	36	0	
13	0	0	0	0	509	510	0	0	36	0	
14	0	0	0	0	512	510	0	0	36	0	
15	0	0	0	0	508	509	0	0	36	0	
0	0	0	0	0	508	510	0	0	36	0	
1	0	0	0	0	510	510	0	0	36	0	
2	0	0	0	0	505	508	0	0	36	0	
3	0	0	0	0	509	508	0	0	36	0	
4	0	0	0	0	508	507	0	0	36	0	
5	0	0	0	0	508	504	0	0	36	0	
6	0	0	0	0	509	506	0	0	36	0	
7	0	0	0	0	508	507	0	0	36	0	
8	0	0	0	0	511	506	0	0	36	0	
9	0	0	0	0	511	506	0	0	36	0	
10	0	0	0	0	510	507	0	0	36	0	
11	0	0	0	0	510	507	0	0	36	0	
12	0	0	0	0	507	505	0	0	36	0	
13	0	0	0	0	507	505	0	0	36	0	
14	0	0	0	0	509	505	0	0	36	0	
15	0	0	0	0	508	504	0	0	36	0	
0	0	0	0	0	510	507	0	0	36	0	
1	0	0	0	0	509	507	0	0	36	0	
2	0	0	0	0	508	508	0	0	36	0	
3	0	0	0	0	505	507	0	0	36	0	
4	0	0	0	0	510	507	0	0	36	0	
5	0	0	0	0	511	507	0	0	36	0	
6	0	0	0	0	509	507	0	0	36	0	
7	0	0	0	0	508	507	0	0	36	0	
8	0	0	0	0	510	505	0	0	36	0	
9	0	0	0	0	510	505	0	0	36	0	
10	0	0	0	0	511	505	0	0	36	0	
11	0	0	0	0	509	507	0	0	36	0	
12	0	0	0	0	511	507	0	0	36	0	
13	0	0	0	0	510	507	0	0	36	0	
14	0	0	0	0	507	507	0	0	36	0	
15	0	0	0	0	509	507	0	0	36	0	
0	0	0	0	0	509	506	0	0	36	0	
1	0	0	0	0	509	508	0	0	36	0	
2	0	0	0	0	508	506	0	0	36	0	
3	0	0	0	0	508	508	0	0	36	0	
4	0	0	0	0	510	507	0	0	36	0	
5	0	0	0	0	507	508	0	0	36	0	
6	0	0	0	0	508	508	0	0	36	0	
7	0	0	0	0	508	508	0	359	36	0	
8	0	0	0	0	508	508	0	615	36	0	
9	0	0	0	0	512	508	0	831	36	0	
10	0	0	0	0	507	508	0	1017	36	0	
11	0	0	0	0	508	509	0	1017	36	0	
12	0	0	0	0	511	507	0	1018	36	0	
13	0	0	0	0	509	507	0	1018	36	0	
14	0	0	0	0	509	507	0	1018	36	0	
15	0	0	0	0	510	508	0	1018	36	0	
0	0	0	0	0	509	508	0	1017	36	0	
1	0	0	0	0	511	508	0	1018	36	0	
2	0	0	0	0	511	507	0	1018	36	0	
3	0	0	0	0	512	506	0	1018	36	0	
4	0	0	0	0	507	508	0	1018	36	0	
5	0	0	0	0	507	507	0	1018	36	0	
6	0	0	0	0	509	507	0	1018	36	0	
7	0	0	0	0	506	507	0	1018	36	0	
8	0	0	0	0	508	508	0	1018	36	0	
9	0	0	0	0	509	509	0	1018	36	0	
10	0	0	0	0	509	509	0	1018	36	0	
11	0	0	0	0	510	508	0	1018	36	0	
12	0	0	0	0	509	506	0	1018	36	0	
13	0	0	0	0	512	506	0	1018	36	0	
14	0	0	0	0	509	507	0	1018	36	0	
15	0	0	0	0	511	508	0	1018	36	0	
0	0	0	0	0	509	507	0	1018	36	0	
1	0	0	0	0	509	508	0	1018	36	0	
2	0	0	0	0	510	506	0	1018	36	0	
3	0	0	0	0	507	507	0	1018	36	0	
4	0	0	0	0	510	509	0	1018	36	0	
5	0	0	0	0	511	509	0	1018	36	0	
6	0	0	0	0	507	508	0	1018	36	0	
7	0	0	0	0	510	508	0	1018	36	0	
8	0	0	0	0	509	509	0	1018	36	0	
9	0	0	0	0	511	511	0	1018	36	0	
10	0	0	0	0	510	508	0	1018	36	0	
11	0	0	0	0	511	508	0	1018	36	0	
12	0	0	0	0	510	508	0	1018	36	0	
13	0	0	0	0	509	508	0	1018	36	0	
14	0	0	0	0	511	509	0	1018	36	0	
15	0	0	0	0	507	507	0	1018	36	0	
0	0	0	0	0	510	508	0	1018	36	0	
1	0	0	0	0	510	510	0	1018	36	0	
2	0	0	0	0	510	509	0	1018	36	0	
3	0	0	0	0	508	509	0	1018	36	0	
4	0	0	0	0	509	509	0	1018	36	0	
5	0	0	0	0	506	508	0	1018	36	0	
6	0	0	0	0	507	510	0	1018	36	0	
7	0	0	0	0	505	508	0	1018	36	0	
8	0	0	0	0	508	510	0	1018	36	0	
9	0	0	0	0	506	508	0	1018	36	0	
10	0	0	0	0	506	508	0	1018	36	0	
11	0	0	0	0	511	508	0	1018	36	0	
12	0	0	0	0	511	509	0	1018	36	0	
13	0	0	0	0	510	511	0	1018	36	0	
14	0	0	0	0	511	509	0	1018	36	0	
15	0	0	0	0	512	507	0	1018	36	0	
0	0	0	0	0	511	508	0	1018	36	0	
1	0	0	0	0	511	508	0	1018	36	0	
2	0	0	0	0	512	510	0	1018	36	0	
3	0	0	0	0	511	510	0	1018	36	0	
4	0	0	0	0	510	508	0	1018	36	0	
5	0	0	0	0	510	509	0	1018	36	0	
6	0	0	0	0	509	509	0	1018	36	0	
7	0	0	0	0	509	507	0	1018	36	0	
8	0	0	0	0	508	505	0	1018	36	0	
9	0	0	0	0	506	507	0	1018	36	0	
10	0	0	0	0	507	507	0	1018	36	0	
11	0	0	0	0	508	507	0	1018	36	0	
12	0	0	0	0	510	509	0	1018	36	0	
13	0	0	0	0	510	509	0	1018	36	0	
14	0	0	0	0	509	508	0	1018	36	0	
15	0	0	0	0	508	509	0	1018	36	0	
0	0	0	0	0	507	510	0	1018	36	0	
1	0	0	0	0	510	509	0	1018	36	0	
2	0	0	0	0	508	510	0	1018	36	0	
3	0	0	0	0	512	508	0	1018	36	0	
4	0	0	0	0	512	508	0	1018	36	0	
5	0	0	0	0	512	508	0	1018	36	0	
6	0	0	0	0	510	510	0	1017	36	0	
7	0	0	0	0	510	508	0	1018	36	0	
8	0	0	0	0	507	507	0	655	36	0	
9	0	0	0	0	508	508	0	127	36	0	
10	0	0	0	0	507	508	0	0	36	0	
11	0	0	0	0	508	508	0	0	36	0	
12	0	0	0	0	506	507	0	0	36	0	
13	0	0	0	0	506	506	0	0	36	0	
14	0	0	0	0	511	506	0	0	36	0	
15	0	0	0	0	512	508	0	0	36	0	
0	0	0	0	0	512	509	0	0	36	0	
1	0	0	0	0	508	510	0	0	36	0	
2	0	0	0	0	509	510	0	0	36	0	
3	0	0	0	0	511	509	0	0	36	0	
4	0	0	0	0	509	510	0	0	36	0	
5	0	0	0	0	511	509	0	0	36	0	
6	0	0	0	0	510	508	0	0	36	0	
7	0	0	0	0	510	507	0	0	36	0	
8	0	0	0	0	508	507	0	0	36	0	
9	0	0	0	0	506	507	0	0	36	0	
10	0	0	0	0	508	506	0	0	36	0	
11	0	0	0	0	508	507	0	0	36	0	
12	0	0	0	0	507	506	0	0	36	0	
13	0	0	0	0	508	505	0	0	36	0	
14	0	0	0	0	507	506	0	0	36	0	
15	0	0	0	0	509	507	0	0	36	0	
0	0	0	0	0	511	504	0	0	36	0	
1	0	0	0	0	508	507	0	0	36	0	
2	0	0	0	0	510	506	0	0	36	0	
3	0	0	0	0	511	509	0	0	36	0	
4	0	0	0	0	510	509	0	0	36	0	
5	0	0	0	0	509	509	0	0	36	0	
6	0	0	0	0	509	508	0	0	36	0	
7	0	0	0	0	511	507	0	0	36	0	
8	0	0	0	0	507	507	0	310	36	0	
9	0	0	0	0	509	508	0	591	36	0	
10	0	0	0	0	509	506	0	851	36	0	
11	0	0	0	0	507	507	0	1018	36	0	
12	0	0	0	0	511	507	0	1018	36	0	
13	0	0	0	0	509	509	0	1018	36	0	
14	0	0	0	0	511	508	0	1018	36	0	
15	0	0	0	0	510	508	0	1018	36	0	
0	0	0	0	0	510	508	0	1018	36	0	
1	0	0	0	0	508	509	0	1017	36	0	
2	0	0	0	0	506	510	0	1018	36	0	
3	0	0	0	0	507	511	0	1018	36	0	
4	0	0	0	0	509	511	0	1018	36	0	
5	0	0	0	0	507	510	0	1018	36	0	
6	0	0	0	0	510	509	0	1018	36	0	
7	0	0	0	0	509	509	0	1018	36	0	
8	0	0	0	0	511	511	0	1018	36	0	
9	0	0	0	0	506	509	0	1018	36	0	
10	0	0	0	0	508	509	0	1018	36	0	
11	0	0	0	0	511	507	0	1018	36	0	
12	0	0	0	0	506	507	0	1018	36	0	
13	0	0	0	0	509	507	0	1018	36	0	
14	0	0	0	0	508	506	0	1018	36	0	
15	0	0	0	0	508	507	0	1018	36	0	
0	0	0	0	0	512	506	0	1018	36	0	
1	0	0	0	0	508	505	0	1018	36	0	
2	0	0	0	0	509	505	0	1018	36	0	
3	0	0	0	0	510	504	0	1018	36	0	
4	0	0	0	0	510	506	0	1018	36	0	
5	0	0	0	0	511	506	0	1018	36	0	
6	0	0	0	0	511	507	0	1018	36	0	
7	0	0	0	0	511	506	0	1018	36	0	
8	0	0	0	0	509	505	0	1018	36	0	
9	0	0	0	0	511	507	0	1018	36	0	
10	0	0	0	0	509	506	0	1018	36	0	
11	0	0	0	0	507	506	0	1018	36	0	
12	0	0	0	0	508	507	0	1018	36	0	
13	0	0	0	0	507	507	0	1018	36	0	
14	0	0	0	0	508	508	0	1018	36	0	
15	0	0	0	0	511	508	0	1018	36	0	
0	0	0	0	0	509	508	0	1018	36	0	
1	0	0	0	0	511	508	0	1018	36	0	
2	0	0	0	0	511	506	0	1018	36	0	
3	0	0	0	0	514	507	0	1018	36	0	
4	0	0	0	0	512	507	0	1018	36	0	
5	0	0	0	0	510	506	0	1018	36	0	
6	0	0	0	0	511	505	0	1018	36	0	
7	0	0	0	0	508	505	0	1018	36	0	
8	0	0	0	0	508	506	0	1018	36	0	
9	0	0	0	0	509	508	0	1018	36	0	
10	0	0	0	0	507	507	0	1018	36	0	
11	0	0	0	0	509	508	0	1018	36	0	
12	0	0	0	0	508	508	0	1018	36	0	
13	0	0	0	0	505	508	0	1018	36	0	
14	0	0	0	0	506	507	0	1018	36	0	
15	0	0	0	0	505	507	0	1017	36	0	
0	0	0	0	0	508	508	0	1017	36	0	
1	0	0	0	0	510	507	0	1017	36	0	
2	0	0	0	0	507	508	0	834	36	0	
3	0	0	0	0	508	508	0	651	36	0	
4	0	0	0	0	506	507	0	564	36	0	
5	0	0	0	0	508	506	0	482	36	0	
6	0	0	0	0	510	505	0	368	36	0	
7	0	0	0	0	509	504	0	200	36	0	
8	0	0	0	0	512	505	0	43	36	0	
9	0	0	0	0	510	503	0	0	36	0	
10	0	0	0	0	512	504	0	0	36	0	
11	0	0	0	0	511	505	0	0	36	0	
12	0	0	0	0	510	504	0	0	36	0	
13	0	0	0	0	507	506	0	0	36	0	
14	0	0	0	0	507	505	0	0	36	0	
15	0	0	0	0	510	506	0	0	36	0	
0	0	0	0	0	510	505	0	0	36	0	
1	0	0	0	0	509	507	0	0	36	0	
2	0	0	0	0	508	508	0	0	36	0	
3	0	0	0	0	510	508	0	0	36	0	
4	0	0	0	0	510	510	0	0	36	0	
5	0	0	0	0	508	509	0	0	36	0	
6	0	0	0	0	510	508	0	0	36	0	
7	0	0	0	0	510	507	0	0	36	0	
8	0	0	0	0	508	505	0	0	36	0	
9	0	0	0	0	509	507	0	0	36	0	
10	0	0	0	0	508	507	0	0	36	0	
11	0	0	0	0	507	506	0	0	36	0	
12	0	0	0	0	511	509	0	0	36	0	
13	0	0	0	0	505	509	0	0	36	0	
14	0	0	0	0	509	510	0	0	36	0	
15	0	0	0	0	508	508	0	0	36	0	
0	0	0	0	0	505	507	0	0	36	0	
1	0	0	0	0	510	506	0	0	36	0	
2	0	0	0	0	508	508	0	0	36	0	
3	0	0	0	0	508	509	0	0	36	0	
4	0	0	0	0	510	508	0	0	36	0	
5	0	0	0	0	509	509	0	0	36	0	
6	0	0	0	0	511	510	0	0	36	0	
7	0	0	0	0	508	509	0	0	36	0	
8	0	0	0	0	509	510	0	0	36	0	
9	0	0	0	0	511	510	0	0	36	0	
10	0	0	0	0	510	512	0	0	36	0	
11	0	0	0	0	510	511	0	0	36	0	
12	0	0	0	0	509	510	0	0	36	0	
13	0	0	0	0	509	508	0	0	36	0	
14	0	0	0	0	508	509	0	0	36	0	
15	0	0	0	0	509	507	0	0	36	0	
0	0	0	0	0	509	507	0	0	36	0	
1	0	0	0	0	505	510	0	0	36	0	
2	0	0	0	0	507	511	0	0	36	0	
3	0	0	0	0	510	510	0	0	36	0	
4	0	0	0	0	508	508	0	0	36	0	
5	0	0	0	0	509	507	0	0	36	0	
6	0	0	0	0	510	507	0	0	36	0	
7	0	0	0	0	506	509	0	184	36	0	
8	0	0	0	0	507	508	0	474	36	0	
9	0	0	0	0	510	509	0	756	36	0	
10	0	0	0	0	510	510	0	972	36	0	
11	0	0	0	0	508	510	0	1018	36	0	
12	0	0	0	0	509	510	0	1017	36	0	
13	0	0	0	0	512	509	0	1018	36	0	
14	0	0	0	0	508	509	0	1018	36	0	
15	0	0	0	0	511	509	0	1018	36	0	
0	0	0	0	0	510	509	0	1018	36	0	
1	0	0	0	0	508	508	0	1017	36	0	
2	0	0	0	0	509	509	0	648	36	0	
3	0	0	0	0	508	509	0	406	36	0	
4	0	0	0	0	510	508	0	199	36	0	
5	0	0	0	0	508	508	0	0	36	0	
6	0	0	0	0	511	508	0	0	36	0	
7	0	0	0	0	510	509	0	0	36	0	
8	0	0	0	0	509	510	0	0	36	0	
9	0	0	0	0	508	508	0	0	36	0	
10	0	0	0	0	508	507	0	0	36	0	
11	0	0	0	0	508	507	0	0	36	0	
12	0	0	0	0	511	507	0	0	36	0	
13	0	0	0	0	509	508	0	0	36	0	
14	0	0	0	0	511	509	0	0	36	0	
15	0	0	0	0	507	510	0	47	36	0	
0	0	0	0	0	508	509	0	121	36	0	
1	0	0	0	0	507	510	0	227	36	0	
2	0	0	0	0	509	510	0	339	36	0	
3	0	0	0	0	512	508	0	372	36	0	
4	0	0	0	0	508	509	0	363	36	0	
5	0	0	0	0	509	508	0	283	36	0	
6	0	0	0	0	509	505	0	119	36	0	
7	0	0	0	0	508	505	0	0	36	0	
8	0	0	0	0	509	506	0	0	36	0	
9	0	0	0	0	510	507	0	0	36	0	
10	0	0	0	0	509	507	0	0	36	0	
11	0	0	0	0	510	509	0	0	36	0	
12	0	0	0	0	510	510	0	0	36	0	
13	0	0	0	0	510	511	0	0	36	0	
14	0	0	0	0	508	511	0	0	36	0	
15	0	0	0	0	508	511	0	0	36	0	
0	0	0	0	0	508	510	0	0	36	0	
1	0	0	0	0	509	512	0	0	36	0	
2	0	0	0	0	509	513	0	0	36	0	
3	0	0	0	0	507	511	0	0	36	0	
4	0	0	0	0	509	512	0	0	36	0	
5	0	0	0	0	508	509	0	0	36	0	
6	0	0	0	0	508	507	0	0	36	0	
7	0	0	0	0	510	507	0	0	36	0	
8	0	0	0	0	510	508	0	0	36	0	
9	0	0	0	0	509	509	0	0	36	0	
10	0	0	0	0	512	510	0	0	36	0	
11	0	0	0	0	509	510	0	0	36	0	
12	0	0	0	0	510	510	0	0	36	0	
13	0	0	0	0	510	509	0	0	36	0	
14	0	0	0	0	511	510	0	0	36	0	
15	0	0	0	0	509	508	0	0	36	0	
0	0	0	0	0	510	507	0	0	36	0	
1	0	0	0	0	505	507	0	0	36	0	
2	0	0	0	0	507	507	0	0	36	0	
3	0	0	0	0	509	508	0	0	36	0	
4	0	0	0	0	507	508	0	0	36	0	
5	0	0	0	0	509	510	0	0	36	0	
6	0	0	0	0	508	509	0	0	36	0	
7	0	0	0	0	507	510	0	0	36	0	
8	0	0	0	0	510	512	0	0	36	0	
9	0	0	0	0	508	512	0	0	36	0	
10	0	0	0	0	509	512	0	0	36	0	
11	0	0	0	0	512	511	0	0	36	0	
12	0	0	0	0	510	508	0	0	36	0	
13	0	0	0	0	512	509	0	0	36	0	
14	0	0	0	0	511	509	0	0	36	0	
15	0	0	0	0	511	509	0	0	36	0	
0	0	0	0	0	510	510	0	0	36	0	
1	0	0	0	0	506	511	0	0	36	0	
2	0	0	0	0	507	512	0	0	36	0	
3	0	0	0	0	509	512	0	0	36	0	
4	0	0	0	0	506	512	0	0	36	0	
5	0	0	0	0	508	511	0	0	36	0	
6	0	0	0	0	507	511	0	0	36	0	
7	0	0	0	0	509	511	0	0	36	0	
8	0	0	0	0	508	510	0	0	36	0	
9	0	0	0	0	511	509	0	0	36	0	
10	0	0	0	0	509	508	0	243	36	0	
11	0	0	0	0	508	508	0	495	36	0	
12	0	0	0	0	507	508	0	607	36	0	
13	0	0	0	0	511	507	0	773	36	0	
14	0	0	0	0	509	506	0	950	36	0	
15	0	0	0	0	510	506	0	985	36	0	
0	0	0	0	0	507	507	0	980	36	0	
1	0	0	0	0	507	508	0	940	36	0	
2	0	0	0	0	509	509	0	924	36	0	
3	0	0	0	0	508	507	0	955	36	0	
4	0	0	0	0	510	507	0	972	36	0	
5	0	0	0	0	508	508	0	1016	36	0	
6	0	0	0	0	509	508	0	1017	36	0	
7	0	0	0	0	511	509	0	1018	36	0	
8	0	0	0	0	510	509	0	1018	36	0	
9	0	0	0	0	511	510	0	1017	36	0	
10	0	0	0	0	511	508	0	1018	36	0	
11	0	0	0	0	509	507	0	1018	36	0	
12	0	0	0	0	510	505	0	1018	36	0	
13	0	0	0	0	509	505	0	1018	36	0	
14	0	0	0	0	512	505	0	1018	36	0	
15	0	0	0	0	510	505	0	1018	36	0	
0	0	0	0	0	509	505	0	1018	36	0	
1	0	0	0	0	508	507	0	1018	36	0	
2	0	0	0	0	508	506	0	1018	36	0	
3	0	0	0	0	507	505	0	1018	36	0	
4	0	0	0	0	506	506	0	1018	36	0	
5	0	0	0	0	506	508	0	1017	36	0	
6	0	0	0	0	511	507	0	1018	36	0	
7	0	0	0	0	508	506	0	1018	36	0	
8	0	0	0	0	508	508	0	1018	36	0	
9	0	0	0	0	509	508	0	1018	36	0	
10	0	0	0	0	508	508	0	1017	36	0	
11	0	0	0	0	508	508	0	1018	36	0	
12	0	0	0	0	512	510	0	1018	36	0	
13	0	0	0	0	509	509	0	1017	36	0	
14	0	0	0	0	509	508	0	1018	36	0	
15	0	0	0	0	514	508	0	1018	36	0	
0	0	0	0	0	511	507	0	1018	36	0	
1	0	0	0	0	510	507	0	1018	36	0	
2	0	0	0	0	508	508	0	1018	36	0	
3	0	0	0	0	507	508	0	1018	36	0	
4	0	0	0	0	507	508	0	1018	36	0	
5	0	0	0	0	506	505	0	1018	36	0	
6	0	0	0	0	508	507	0	1018	36	0	
7	0	0	0	0	509	506	0	1018	36	0	
8	0	0	0	0	510	506	0	1018	36	0	
9	0	0	0	0	509	507	0	876	36	0	
10	0	0	0	0	508	507	0	700	36	0	
11	0	0	0	0	510	506	0	580	36	0	
12	0	0	0	0	512	507	0	479	36	0	
13	0	0	0	0	508	508	0	452	36	0	
14	0	0	0	0	511	508	0	393	36	0	
15	0	0	0	0	508	508	0	359	36	0	
0	0	0	0	0	508	508	0	345	36	0	
1	0	0	0	0	511	506	0	312	36	0	
2	0	0	0	0	508	505	0	338	36	0	
3	0	0	0	0	508	505	0	404	36	0	
4	0	0	0	0	508	506	0	591	36	0	
5	0	0	0	0	508	506	0	815	36	0	
6	0	0	0	0	508	507	0	930	36	0	
7	0	0	0	0	508	506	0	990	36	0	
8	0	0	0	0	510	506	0	1017	36	0	
9	0	0	0	0	511	504	0	1018	36	0	
10	0	0	0	0	512	505	0	1017	36	0	
11	0	0	0	0	512	506	0	1018	36	0	
12	0	0	0	0	511	507	0	1017	36	0	
13	0	0	0	0	508	507	0	871	36	0	
14	0	0	0	0	512	506	0	788	36	0	
15	0	0	0	0	511	506	0	778	36	0	
0	0	0	0	0	511	506	0	757	36	0	
1	0	0	0	0	510	506	0	874	36	0	
2	0	0	0	0	512	507	0	838	36	0	
3	0	0	0	0	511	507	0	813	36	0	
4	0	0	0	0	508	506	0	805	36	0	
5	0	0	0	0	508	505	0	754	36	0	
6	0	0	0	0	505	505	0	786	36	0	
7	0	0	0	0	507	506	0	854	36	0	
8	0	0	0	0	507	508	0	1007	36	0	
9	0	0	0	0	508	509	0	1018	36	0	
10	0	0	0	0	510	510	0	1018	36	0	
11	0	0	0	0	508	510	0	1018	36	0	
12	0	0	0	0	509	511	0	1017	36	0	
13	0	0	0	0	510	510	0	1017	36	0	
14	0	0	0	0	510	512	0	912	36	0	
15	0	0	0	0	511	510	0	1017	36	0	
0	0	0	0	0	509	510	0	1018	36	0	
1	0	0	0	0	512	508	0	1018	36	0	
2	0	0	0	0	511	508	0	1018	36	0	
3	0	0	0	0	510	506	0	1018	36	0	
4	0	0	0	0	510	506	0	1018	36	0	
5	0	0	0	0	507	507	0	1018	36	0	
6	0	0	0	0	505	507	0	1018	36	0	
7	0	0	0	0	506	508	0	1018	36	0	
8	0	0	0	0	506	508	0	1018	36	0	
9	0	0	0	0	509	508	0	1018	36	0	
10	0	0	0	0	508	507	0	1018	36	0	
11	0	0	0	0	508	508	0	1018	36	0	
12	0	0	0	0	511	508	0	1018	36	0	
13	0	0	0	0	509	509	0	1018	36	0	
14	0	0	0	0	509	508	0	1018	36	0	
15	0	0	0	0	508	508	0	1018	36	0	
0	0	0	0	0	510	508	0	1018	36	0	
1	0	0	0	0	510	508	0	1018	36	0	
2	0	0	0	0	511	507	0	1018	36	0	
3	0	0	0	0	511	508	0	1018	36	0	
4	0	0	0	0	510	508	0	1018	36	0	
5	0	0	0	0	509	508	0	1018	36	0	
6	0	0	0	0	507	505	0	1018	36	0	
7	0	0	0	0	507	504	0	1018	36	0	
8	0	0	0	0	511	507	0	1018	36	0	
9	0	0	0	0	507	506	0	1018	36	0	
10	0	0	0	0	512	507	0	1018	36	0	
11	0	0	0	0	509	506	0	1018	36	0	
12	0	0	0	0	508	507	0	1017	36	1	
13	0	0	0	0	510	504	0	1018	36	0	
14	0	0	0	0	510	506	0	1018	36	0	
15	0	0	0	0	512	507	0	1018	36	0	
0	0	0	0	0	508	507	0	1018	36	0	
1	0	0	0	0	509	507	0	1018	36	0	
2	0	0	0	0	512	508	0	1018	36	0	
3	0	0	0	0	511	508	0	1018	36	0	
4	0	0	0	0	511	509	0	1018	36	0	
5	0	0	0	0	510	509	0	1018	36	0	
6	0	0	0	0	507	507	0	1018	36	0	
7	0	0	0	0	508	505	0	1018	36	0	
8	0	0	0	0	506	507	0	1018	36	0	
9	0	0	0	0	510	509	0	1018	36	0	
10	0	0	0	0	506	509	0	1018	36	0	
11	0	0	0	0	508	510	0	1018	36	0	
12	0	0	0	0	512	509	0	1018	36	0	
13	0	0	0	0	511	510	0	1018	36	0	
14	0	0	0	0	510	509	0	1018	36	0	
15	0	0	0	0	510	508	0	1018	36	0	
0	0	0	0	0	508	508	0	1018	36	0	
1	0	0	0	0	511	510	0	1018	36	0	
2	0	0	0	0	507	510	0	1018	36	0	
3	0	0	0	0	506	509	0	1018	36	0	
4	0	0	0	0	509	508	0	1018	36	0	
5	0	0	0	0	507	508	0	1018	36	0	
6	0	0	0	0	511	508	0	1018	36	0	
7	0	0	0	0	507	509	0	1018	36	0	
8	0	0	0	0	508	510	0	1018	36	0	
9	0	0	0	0	507	509	0	1018	36	0	
10	0	0	0	0	510	507	0	1018	36	0	
11	0	0	0	0	510	506	0	1018	36	0	
12	0	0	0	0	509	507	0	1017	36	0	
13	0	0	0	0	508	505	0	1018	36	0	
14	0	0	0	0	510	506	0	1018	36	0	
15	0	0	0	0	509	508	0	1018	36	0	
0	0	0	0	0	510	509	0	1017	36	0	
1	0	0	0	0	509	508	0	1018	36	0	
2	0	0	0	0	512	508	0	1018	36	0	
3	0	0	0	0	508	508	0	1018	36	0	
4	0	0	0	0	510	509	0	1018	36	0	
5	0	0	0	0	511	510	0	1018	36	0	
6	0	0	0	0	509	509	0	1018	36	0	
7	0	0	0	0	508	510	0	1018	36	0	
8	0	0	0	0	509	508	0	1018	36	0	
9	0	0	0	0	511	507	0	1018	36	0	
10	0	0	0	0	510	507	0	1018	36	0	
11	0	0	0	0	510	507	0	1018	36	0	
12	0	0	0	0	508	506	0	1018	36	0	
13	0	0	0	0	511	506	0	1018	36	0	
14	0	0	0	0	509	507	0	1018	36	0	
15	0	0	0	0	512	508	0	1018	36	0	
0	0	0	0	0	508	508	0	1018	36	0	
1	0	0	0	0	509	508	0	1018	36	0	
2	0	0	0	0	508	505	0	1018	36	0	
3	0	0	0	0	509	506	0	1018	36	0	
4	0	0	0	0	510	507	0	1018	36	0	
5	0	0	0	0	508	507	0	1018	36	0	
6	0	0	0	0	510	509	0	1018	36	0	
7	0	0	0	0	507	506	0	1018	36	0	
8	0	0	0	0	506	506	0	1018	36	0	
9	0	0	0	0	507	505	0	1018	36	0	
10	0	0	0	0	506	506	0	1018	36	0	
11	0	0	0	0	507	507	0	1018	36	0	
12	0	0	0	0	508	506	0	1018	36	0	
13	0	0	0	0	509	508	0	1018	36	0	
14	0	0	0	0	512	510	0	1018	36	0	
15	0	0	0	0	510	510	0	1018	36	0	
0	0	0	0	0	511	512	0	1018	36	0	
1	0	0	0	0	509	512	0	1018	36	0	
2	0	0	0	0	512	510	0	1018	36	0	
3	0	0	0	0	511	510	0	1018	36	0	
4	0	0	0	0	511	510	0	1018	36	0	
5	0	0	0	0	511	510	0	1018	36	0	
6	0	0	0	0	509	510	0	1018	36	0	
7	0	0	0	0	508	511	0	1018	36	0	
8	0	0	0	0	509	511	0	1018	36	0	
9	0	0	0	0	508	512	0	1018	36	0	
10	0	0	0	0	508	511	0	1018	36	0	
11	0	0	0	0	507	511	0	1018	36	0	
12	0	0	0	0	510	512	0	1018	36	0	
13	0	0	0	0	511	512	0	1018	36	0	
14	0	0	0	0	507	512	0	1018	36	0	
15	0	0	0	0	508	511	0	1018	36	0	
0	0	0	0	0	509	509	0	1018	36	0	
1	0	0	0	0	510	508	0	1018	36	0	
2	0	0	0	0	511	509	0	1018	36	0	
3	0	0	0	0	511	510	0	632	36	0	
4	0	0	0	0	509	508	0	48	36	0	
5	0	0	0	0	511	506	0	0	36	0	
6	0	0	0	0	510	507	0	0	36	0	
7	0	0	0	0	512	508	0	0	36	0	
8	0	0	0	0	508	508	0	0	36	0	
9	0	0	0	0	505	508	0	0	36	0	
10	0	0	0	0	507	508	0	0	36	0	
11	0	0	0	0	506	508	0	0	36	0	
12	0	0	0	0	510	508	0	0	36	0	
13	0	0	0	0	508	509	0	0	36	0	
14	0	0	0	0	508	510	0	0	36	0	
15	0	0	0	0	511	508	0	0	36	0	
0	0	0	0	0	511	507	0	0	36	0	
1	0	0	0	0	511	509	0	0	36	0	
2	0	0	0	0	510	508	0	0	36	0	
3	0	0	0	0	508	507	0	0	36	0	
4	0	0	0	0	509	507	0	0	36	0	
5	0	0	0	0	508	505	0	0	36	0	
6	0	0	0	0	510	507	0	0	36	0	
7	0	0	0	0	510	509	0	0	36	0	
8	0	0	0	0	508	511	0	0	36	0	
9	0	0	0	0	508	510	0	0	36	0	
10	0	0	0	0	508	507	0	0	36	0	
11	0	0	0	0	511	505	0	0	36	0	
12	0	0	0	0	507	506	0	0	36	0	
13	0	0	0	0	508	505	0	0	36	0	
14	0	0	0	0	507	505	0	0	36	0	
15	0	0	0	0	510	505	0	0	36	0	
0	0	0	0	0	511	504	0	0	36	0	
1	0	0	0	0	510	504	0	0	36	0	
2	0	0	0	0	510	504	0	305	36	0	
3	0	0	0	0	510	504	0	731	36	0	
4	0	0	0	0	510	504	0	1018	36	0	
5	0	0	0	0	510	502	0	1018	36	0	
6	0	0	0	0	509	504	0	1018	36	0	
7	0	0	0	0	508	507	0	1018	36	0	
8	0	0	0	0	508	508	0	1018	36	0	
9	0	0	0	0	510	507	0	1018	36	0	
10	0	0	0	0	510	506	0	1018	36	0	
11	0	0	0	0	505	507	0	1018	36	0	
12	0	0	0	0	508	508	0	1018	36	0	
13	0	0	0	0	508	508	0	1018	36	0	
14	0	0	0	0	508	507	0	1018	36	0	
15	0	0	0	0	510	508	0	1018	36	0	
0	0	0	0	0	510	508	0	1018	36	0	
1	0	0	0	0	510	508	0	1018	36	0	
2	0	0	0	0	507	508	0	1018	36	0	
3	0	0	0	0	508	506	0	1018	36	0	
4	0	0	0	0	509	506	0	1018	36	0	
5	0	0	0	0	509	505	0	1018	36	0	
6	0	0	0	0	511	505	0	1018	36	0	
7	0	0	0	0	511	503	0	1018	36	0	
8	0	0	0	0	512	504	0	1018	36	0	
9	0	0	0	0	511	504	0	1017	36	0	
10	0	0	0	0	506	505	0	1018	36	0	
11	0	0	0	0	507	504	0	1018	36	0	
12	0	0	0	0	508	506	0	1018	36	0	
13	0	0	0	0	508	505	0	1018	36	0	
14	0	0	0	0	512	504	0	1018	36	0	
15	0	0	0	0	509	506	0	1018	36	0	
0	0	0	0	0	510	506	0	1018	36	0	
1	0	0	0	0	507	507	0	1018	36	0	
2	0	0	0	0	509	507	0	1018	36	0	
3	0	0	0	0	510	508	0	807	36	0	
4	0	0	0	0	508	506	0	372	36	0	
5	0	0	0	0	509	506	0	0	36	0	
6	0	0	0	0	510	508	0	0	36	0	
7	0	0	0	0	510	508	0	0	36	0	
8	0	0	0	0	510	508	0	0	36	0	
9	0	0	0	0	505	508	0	0	36	0	
10	0	0	0	0	506	509	0	0	36	0	
11	0	0	0	0	509	509	0	0	36	0	
12	0	0	0	0	506	507	0	0	36	0	
13	0	0	0	0	508	505	0	0	36	0	
14	0	0	0	0	509	506	0	0	36	0	
15	0	0	0	0	512	507	0	0	36	0	
0	0	0	0	0	508	505	0	0	36	0	
1	0	0	0	0	511	505	0	0	36	0	
2	0	0	0	0	507	506	0	0	36	0	
3	0	0	0	0	507	508	0	0	36	0	
4	0	0	0	0	507	509	0	0	36	0	
5	0	0	0	0	509	508	0	0	36	0	
6	0	0	0	0	509	509	0	0	36	0	
7	0	0	0	0	510	509	0	0	36	0	
8	0	0	0	0	508	508	0	0	36	0	
9	0	0	0	0	510	509	0	0	36	0	
10	0	0	0	0	510	508	0	0	36	0	
11	0	0	0	0	511	509	0	0	36	0	
12	0	0	0	0	511	510	0	0	36	0	
13	0	0	0	0	508	511	0	0	36	0	
14	0	0	0	0	509	510	0	0	36	0	
15	0	0	0	0	508	507	0	0	36	0	
0	0	0	0	0	509	508	0	0	36	0	
1	0	0	0	0	509	508	0	0	36	0	
2	0	0	0	0	508	508	0	0	36	0	
3	0	0	0	0	510	508	0	0	36	0	
4	0	0	0	0	510	507	0	0	36	0	
5	0	0	0	0	507	507	0	0	36	0	
6	0	0	0	0	509	506	0	0	36	0	
7	0	0	0	0	508	506	0	0	36	0	
8	0	0	0	0	508	507	0	0	36	0	
9	0	0	0	0	508	507	0	0	36	0	
10	0	0	0	0	510	508	0	0	36	0	
11	0	0	0	0	510	508	0	0	36	0	
12	0	0	0	0	508	507	0	0	36	0	
13	0	0	0	0	508	511	0	0	36	0	
14	0	0	0	0	508	508	0	0	36	0	
15	0	0	0	0	505	505	0	0	36	0	
0	0	0	0	0	509	505	0	0	36	0	
1	0	0	0	0	509	505	0	0	36	0	
2	0	0	0	0	513	504	0	0	36	0	
3	0	0	0	0	510	504	0	0	36	0	
4	0	0	0	0	510	504	0	0	36	0	
5	0	0	0	0	509	505	0	0	36	0	
6	0	0	0	0	506	507	0	0	36	0	
7	0	0	0	0	507	507	0	0	36	0	
8	0	0	0	0	508	507	0	0	36	0	
9	0	0	0	0	508	506	0	0	36	0	
10	0	0	0	0	510	507	0	0	36	0	
11	0	0	0	0	508	505	0	0	36	0	
12	0	0	0	0	509	505	0	0	36	0	
13	0	0	0	0	508	506	0	0	36	0	
14	0	0	0	0	507	505	0	0	36	0	
15	0	0	0	0	511	505	0	0	36	0	
0	0	0	0	0	508	505	0	0	36	0	
1	0	0	0	0	507	506	0	0	36	0	
2	0	0	0	0	510	506	0	0	36	0	
3	0	0	0	0	508	505	0	0	36	0	
4	0	0	0	0	512	507	0	0	36	0	
5	0	0	0	0	511	507	0	0	36	0	
6	0	0	0	0	509	507	0	0	36	0	
7	0	0	0	0	511	507	0	0	36	0	
8	0	0	0	0	509	508	0	0	36	0	
9	0	0	0	0	511	506	0	0	36	0	
10	0	0	0	0	507	507	0	0	36	0	
11	0	0	0	0	510	507	0	0	36	0	
12	0	0	0	0	510	506	0	0	36	0	
13	0	0	0	0	511	505	0	0	36	0	
14	0	0	0	0	512	507	0	0	36	0	
15	0	0	0	0	509	506	0	0	36	0	
0	0	0	0	0	508	506	0	0	36	0	
1	0	0	0	0	506	505	0	0	36	0	
2	0	0	0	0	507	504	0	0	36	0	
3	0	0	0	0	508	505	0	0	36	0	
4	0	0	0	0	510	506	0	0	36	0	
5	0	0	0	0	509	507	0	0	36	0	
6	0	0	0	0	509	506	0	0	36	0	
7	0	0	0	0	506	504	0	0	36	0	
8	0	0	0	0	510	506	0	134	36	0	
9	0	0	0	0	510	507	0	401	36	0	
10	0	0	0	0	509	507	0	674	36	0	
11	0	0	0	0	510	508	0	952	36	0	
12	0	0	0	0	509	508	0	1018	36	0	
13	0	0	0	0	511	510	0	1018	36	0	
14	0	0	0	0	507	508	0	1018	36	0	
15	0	0	0	0	510	508	0	1018	36	0	
0	0	0	0	0	508	509	0	1018	36	0	
1	0	0	0	0	505	509	0	1018	36	0	
2	0	0	0	0	508	508	0	1018	36	0	
3	0	0	0	0	507	508	0	1018	36	0	
4	0	0	0	0	511	508	0	1018	36	0	
5	0	0	0	0	512	507	0	1018	36	0	
6	0	0	0	0	510	506	0	1018	36	0	
7	0	0	0	0	509	506	0	1018	36	0	
8	0	0	0	0	507	504	0	1018	36	0	
9	0	0	0	0	510	507	0	1018	36	0	
10	0	0	0	0	508	508	0	1018	36	0	
11	0	0	0	0	509	507	0	1018	36	0	
12	0	0	0	0	509	507	0	1018	36	0	
13	0	0	0	0	511	508	0	1018	36	0	
14	0	0	0	0	511	509	0	1018	36	0	
15	0	0	0	0	509	507	0	1018	36	0	
0	0	0	0	0	509	508	0	1018	36	0	
1	0	0	0	0	511	508	0	1018	36	0	
2	0	0	0	0	508	508	0	1018	36	0	
3	0	0	0	0	510	508	0	1018	36	0	
4	0	0	0	0	510	508	0	1018	36	0	
5	0	0	0	0	508	510	0	1018	36	0	
6	0	0	0	0	510	511	0	1018	36	0	
7	0	0	0	0	508	510	0	1018	36	0	
8	0	0	0	0	508	511	0	1018	36	0	
9	0	0	0	0	508	510	0	1018	36	0	
10	0	0	0	0	509	511	0	1018	36	0	
11	0	0	0	0	508	511	0	1018	36	0	
12	0	0	0	0	508	510	0	1018	36	0	
13	0	0	0	0	510	510	0	1018	36	0	
14	0	0	0	0	508	508	0	1018	36	0	
15	0	0	0	0	510	506	0	1018	36	0	
0	0	0	0	0	508	507	0	1018	36	0	
1	0	0	0	0	510	508	0	1018	36	0	
2	0	0	0	0	511	510	0	1018	36	0	
3	0	0	0	0	509	511	0	1018	36	0	
4	0	0	0	0	511	513	0	1018	36	0	
5	0	0	0	0	510	513	0	1018	36	0	
6	0	0	0	0	510	511	0	1018	36	0	
7	0	0	0	0	510	512	0	1017	36	0	
8	0	0	0	0	512	510	0	1017	36	0	
9	0	0	0	0	509	509	0	771	36	0	
10	0	0	0	0	511	508	0	508	36	0	
11	0	0	0	0	508	508	0	296	36	0	
12	0	0	0	0	509	510	0	62	36	0	
13	0	0	0	0	508	511	0	0	36	0	
14	0	0	0	0	507	510	0	0	36	0	
15	0	0	0	0	512	511	0	0	36	0	
0	0	0	0	0	508	511	0	0	36	0	
1	0	0	0	0	508	511	0	0	36	0	
2	0	0	0	0	508	509	0	0	36	0	
3	0	0	0	0	507	510	0	0	36	0	
4	0	0	0	0	507	508	0	0	36	0	
5	0	0	0	0	506	508	0	0	36	0	
6	0	0	0	0	507	507	0	0	36	0	
7	0	0	0	0	511	504	0	0	36	0	
8	0	0	0	0	509	504	0	162	36	0	
9	0	0	0	0	512	505	0	288	36	0	
10	0	0	0	0	507	506	0	493	36	0	
11	0	0	0	0	508	509	0	780	36	0	
12	0	0	0	0	507	508	0	1018	36	0	
13	0	0	0	0	507	508	0	1018	36	0	
14	0	0	0	0	508	508	0	1018	36	0	
15	0	0	0	0	508	509	0	1018	36	0	
0	0	0	0	0	508	509	0	1018	36	0	
1	0	0	0	0	509	510	0	1018	36	0	
2	0	0	0	0	507	510	0	1018	36	0	
3	0	0	0	0	509	508	0	1018	36	0	
4	0	0	0	0	510	508	0	1018	36	0	
5	0	0	0	0	508	509	0	1018	36	0	
6	0	0	0	0	508	509	0	1018	36	0	
7	0	0	0	0	510	508	0	1018	36	0	
8	0	0	0	0	512	507	0	1018	36	0	
9	0	0	0	0	512	507	0	1018	36	0	
10	0	0	0	0	510	510	0	1018	36	0	
11	0	0	0	0	511	510	0	1018	36	0	
12	0	0	0	0	512	508	0	1018	36	0	
13	0	0	0	0	510	509	0	1018	36	0	
14	0	0	0	0	510	509	0	1018	36	0	
15	0	0	0	0	510	508	0	1018	36	0	
0	0	0	0	0	511	506	0	1018	36	0	
1	0	0	0	0	508	505	0	1018	36	0	
2	0	0	0	0	510	505	0	1018	36	0	
3	0	0	0	0	508	505	0	1018	36	0	
4	0	0	0	0	510	506	0	1018	36	0	
5	0	0	0	0	507	508	0	1018	36	0	
6	0	0	0	0	507	507	0	1018	36	0	
7	0	0	0	0	509	506	0	1018	36	0	
8	0	0	0	0	508	508	0	1018	36	0	
9	0	0	0	0	511	509	0	1018	36	0	
10	0	0	0	0	511	508	0	1018	36	0	
11	0	0	0	0	509	507	0	1018	36	0	
12	0	0	0	0	508	506	0	1018	36	0	
13	0	0	0	0	510	507	0	1018	36	0	
14	0	0	0	0	508	508	0	1018	36	0	
15	0	0	0	0	510	507	0	1018	36	0	
0	0	0	0	0	509	505	0	1018	36	0	
1	0	0	0	0	511	506	0	1018	36	0	
2	0	0	0	0	508	507	0	1018	36	0	
3	0	0	0	0	506	507	0	1018	36	0	
4	0	0	0	0	508	508	0	1018	36	0	
5	0	0	0	0	510	507	0	1018	36	0	
6	0	0	0	0	508	508	0	1018	36	0	
7	0	0	0	0	508	508	0	1018	36	0	
8	0	0	0	0	510	508	0	1018	36	0	
9	0	0	0	0	509	507	0	1018	36	0	
10	0	0	0	0	511	505	0	1018	36	0	
11	0	0	0	0	512	505	0	1018	36	0	
12	0	0	0	0	508	507	0	1018	36	0	
13	0	0	0	0	510	509	0	1018	36	0	
14	0	0	0	0	510	508	0	1018	36	0	
15	0	0	0	0	510	508	0	1018	36	0	
0	0	0	0	0	511	507	0	1018	36	0	
1	0	0	0	0	508	509	0	1018	36	0	
2	0	0	0	0	509	509	0	1018	36	0	
3	0	0	0	0	508	509	0	1018	36	0	
4	0	0	0	0	508	510	0	1018	36	0	
5	0	0	0	0	507	508	0	1018	36	0	
6	0	0	0	0	510	509	0	1018	36	0	
7	0	0	0	0	508	509	0	1018	36	0	
8	0	0	0	0	508	509	0	1018	36	0	
9	0	0	0	0	509	510	0	1018	36	0	
10	0	0	0	0	508	509	0	1018	36	0	
11	0	0	0	0	510	510	0	1018	36	0	
12	0	0	0	0	510	510	0	1018	36	0	
13	0	0	0	0	510	508	0	1018	36	0	
14	0	0	0	0	509	508	0	1018	36	0	
15	0	0	0	0	512	508	0	1018	36	0	
0	0	0	0	0	511	508	0	1018	36	0	
1	0	0	0	0	509	508	0	1018	36	0	
2	0	0	0	0	508	507	0	1018	36	0	
3	0	0	0	0	509	506	0	1018	36	0	
4	0	0	0	0	511	507	0	1018	36	0	
5	0	0	0	0	508	511	0	1018	36	0	
6	0	0	0	0	508	509	0	1018	36	0	
7	0	0	0	0	510	508	0	1018	36	0	
8	0	0	0	0	509	510	0	1018	36	0	
9	0	0	0	0	511	510	0	1018	36	0	
10	0	0	0	0	510	511	0	1017	36	0	
11	0	0	0	0	508	513	0	1018	36	0	
12	0	0	0	0	510	511	0	1018	36	0	
13	0	0	0	0	508	509	0	1018	36	0	
14	0	0	0	0	508	508	0	759	36	0	
15	0	0	0	0	508	510	0	422	36	0	
0	0	0	0	0	509	510	0	64	36	0	
1	0	0	0	0	508	508	0	0	36	0	
2	0	0	0	0	509	506	0	0	36	0	
3	0	0	0	0	510	507	0	0	36	0	
4	0	0	0	0	507	508	0	0	36	0	
5	0	0	0	0	508	508	0	0	36	0	
6	0	0	0	0	507	508	0	0	36	0	
7	0	0	0	0	505	506	0	0	36	0	
8	0	0	0	0	510	505	0	0	36	0	
9	0	0	0	0	511	505	0	0	36	0	
10	0	0	0	0	509	505	0	0	36	0	
11	0	0	0	0	511	505	0	0	36	0	
12	0	0	0	0	509	507	0	0	36	0	
13	0	0	0	0	511	508	0	0	36	0	
14	0	0	0	0	507	508	0	0	36	0	
15	0	0	0	0	508	507	0	0	36	0	
0	0	0	0	0	507	508	0	0	36	0	
1	0	0	0	0	511	510	0	0	36	0	
2	0	0	0	0	511	510	0	0	36	0	
3	0	0	0	0	508	509	0	0	36	0	
4	0	0	0	0	508	510	0	0	36	0	
5	0	0	0	0	510	509	0	0	36	0	
6	0	0	0	0	506	508	0	0	36	0	
7	0	0	0	0	510	506	0	0	36	0	
8	0	0	0	0	506	506	0	0	36	0	
9	0	0	0	0	507	506	0	0	36	0	
10	0	0	0	0	509	505	0	0	36	0	
11	0	0	0	0	508	506	0	0	36	0	
12	0	0	0	0	512	508	0	0	36	0	
13	0	0	0	0	508	507	0	0	36	0	
14	0	0	0	0	509	506	0	0	36	0	
15	0	0	0	0	509	504	0	0	36	0	
0	0	0	0	0	513	505	0	0	36	0	
1	0	0	0	0	513	506	0	0	36	0	
2	0	0	0	0	510	504	0	0	36	0	
3	0	0	0	0	509	505	0	0	36	0	
4	0	0	0	0	509	505	0	0	36	0	
5	0	0	0	0	507	505	0	0	36	0	
6	0	0	0	0	508	503	0	0	36	0	
7	0	0	0	0	507	503	0	0	36	0	
8	0	0	0	0	511	506	0	0	36	0	
9	0	0	0	0	509	506	0	0	36	0	
10	0	0	0	0	511	506	0	0	36	0	
11	0	0	0	0	512	506	0	0	36	0	
12	0	0	0	0	511	506	0	0	36	0	
13	0	0	0	0	510	507	0	0	36	0	
14	0	0	0	0	507	506	0	0	36	0	
15	0	0	0	0	506	505	0	0	36	0	
0	0	0	0	0	512	505	0	0	36	0	
1	0	0	0	0	508	505	0	0	36	0	
2	0	0	0	0	508	505	0	0	36	0	
3	0	0	0	0	511	506	0	0	36	0	
4	0	0	0	0	508	507	0	0	36	0	
5	0	0	0	0	510	508	0	0	36	0	
6	0	0	0	0	509	508	0	0	36	0	
7	0	0	0	0	508	509	0	0	36	0	
8	0	0	0	0	505	507	0	0	36	0	
9	0	0	0	0	507	508	0	0	36	0	
10	0	0	0	0	508	508	0	0	36	0	
11	0	0	0	0	505	508	0	0	36	0	
12	0	0	0	0	508	508	0	0	36	0	
13	0	0	0	0	508	508	0	0	36	0	
14	0	0	0	0	511	507	0	0	36	0	
15	0	0	0	0	511	508	0	0	36	0	
0	0	0	0	0	508	509	0	0	36	0	
1	0	0	0	0	510	508	0	0	36	0	
2	0	0	0	0	509	507	0	0	36	0	
3	0	0	0	0	510	506	0	0	36	0	
4	0	0	0	0	510	507	0	0	36	0	
5	0	0	0	0	507	507	0	0	36	0	
6	0	0	0	0	508	507	0	0	36	0	
7	0	0	0	0	506	508	0	0	36	0	
8	0	0	0	0	506	508	0	0	36	0	
9	0	0	0	0	508	510	0	0	36	0	
10	0	0	0	0	505	509	0	0	36	0	
11	0	0	0	0	507	508	0	0	36	0	
12	0	0	0	0	509	508	0	0	36	0	
13	0	0	0	0	511	506	0	0	36	0	
14	0	0	0	0	510	506	0	0	36	0	
15	0	0	0	0	509	505	0	0	36	0	
0	0	0	0	0	511	507	0	0	36	0	
1	0	0	0	0	509	509	0	0	36	0	
2	0	0	0	0	508	511	0	0	36	0	
3	0	0	0	0	511	511	0	0	36	0	
4	0	0	0	0	508	509	0	0	36	0	
5	0	0	0	0	512	509	0	0	36	0	
6	0	0	0	0	512	507	0	0	36	0	
7	0	0	0	0	510	507	0	0	36	0	
8	0	0	0	0	511	509	0	0	36	0	
9	0	0	0	0	508	508	0	0	36	0	
10	0	0	0	0	504	509	0	0	36	0	
11	0	0	0	0	508	507	0	0	36	0	
12	0	0	0	0	511	506	0	0	36	0	
13	0	0	0	0	510	506	0	0	36	0	
14	0	0	0	0	512	508	0	0	36	0	
15	0	0	0	0	512	509	0	204	36	0	
0	0	0	0	0	511	507	0	389	36	0	
1	0	0	0	0	509	506	0	470	36	0	
2	0	0	0	0	511	506	0	482	36	0	
3	0	0	0	0	508	506	0	444	36	0	
4	0	0	0	0	507	507	0	415	36	0	
5	0	0	0	0	509	507	0	464	36	0	
6	0	0	0	0	506	507	0	628	36	0	
7	0	0	0	0	510	508	0	829	36	0	
8	0	0	0	0	509	509	0	1018	36	0	
9	0	0	0	0	509	507	0	1017	36	0	
10	0	0	0	0	506	506	0	1018	36	0	
11	0	0	0	0	507	506	0	1018	36	0	
12	0	0	0	0	507	504	0	1018	36	0	
13	0	0	0	0	506	505	0	1018	36	0	
14	0	0	0	0	508	505	0	1018	36	0	
15	0	0	0	0	509	505	0	1018	36	0	
0	0	0	0	0	511	506	0	1018	36	0	
1	0	0	0	0	512	506	0	1018	36	0	
2	0	0	0	0	509	505	0	1018	36	0	
3	0	0	0	0	510	507	0	1018	36	0	
4	0	0	0	0	509	507	0	1018	36	0	
