timestamp,0,1,2,3,4,5,6,7,8,9
1,0,0,0,0,509,511,0,1018,38,1
2,0,0,0,0,510,512,0,1018,38,0
3,0,0,0,0,512,511,0,1018,38,0
4,0,0,0,0,508,509,0,1018,38,0
5,0,0,0,0,510,511,0,1018,38,0
6,0,0,0,0,511,510,0,1018,38,1
7,0,0,0,0,512,509,0,1018,39,1
8,0,0,0,0,509,509,0,1018,38,1
9,0,0,0,0,509,511,0,1018,38,1
10,0,0,0,0,507,512,0,1018,38,0
11,0,0,0,0,509,512,0,1018,38,0
12,0,0,0,0,508,510,0,1018,38,0
13,0,0,0,0,510,507,0,1018,38,0
14,0,0,0,0,509,507,0,762,38,0
15,0,0,0,0,508,507,0,645,39,0
0,0,0,0,0,510,504,0,561,38,1
1,0,0,0,0,508,505,0,416,38,1
2,0,0,0,0,509,506,0,295,38,0
3,0,0,0,0,509,507,0,155,38,0
4,0,0,0,0,507,507,0,46,38,0
5,0,0,0,0,509,507,0,116,38,0
6,0,0,0,0,508,507,0,234,38,0
7,0,0,0,0,511,505,0,320,39,0
8,0,0,0,0,509,505,0,276,38,1
9,0,0,0,0,512,505,0,102,38,1
10,0,0,0,0,507,505,0,0,38,0
11,0,0,0,0,507,506,0,0,38,0
12,0,0,0,0,509,506,0,0,38,0
13,0,0,0,0,507,507,0,0,38,0
14,0,0,0,0,509,509,0,0,38,0
15,0,0,0,0,509,509,0,0,39,0
0,0,0,0,0,509,509,0,0,38,1
1,0,0,0,0,510,509,0,0,38,0
2,0,0,0,0,510,508,0,0,38,0
3,0,0,0,0,509,507,0,0,38,0
4,0,0,0,0,509,507,0,0,38,0
5,0,0,0,0,509,508,0,0,38,0
6,0,0,0,0,511,507,0,0,38,0
7,0,0,0,0,509,507,0,0,39,0
8,0,0,0,0,511,505,0,0,38,0
9,0,0,0,0,508,505,0,0,38,1
10,0,0,0,0,509,505,0,0,38,0
11,0,0,0,0,508,505,0,0,38,0
12,0,0,0,0,508,505,0,0,38,0
13,0,0,0,0,510,508,0,0,38,0
14,0,0,0,0,511,506,0,0,38,0
15,0,0,0,0,508,507,0,0,39,0
0,0,0,0,0,510,508,0,0,38,0
1,0,0,0,0,507,511,0,0,38,1
2,0,0,0,0,508,511,0,0,38,0
3,0,0,0,0,507,508,0,0,38,0
4,0,0,0,0,509,509,0,0,38,0
5,0,0,0,0,510,507,0,0,38,0
6,0,0,0,0,509,508,0,0,38,0
7,0,0,0,0,509,510,0,0,39,0
8,0,0,0,0,507,509,0,0,38,0
9,0,0,0,0,507,507,0,0,38,0
10,0,0,0,0,509,508,0,0,38,0
11,0,0,0,0,508,508,0,0,38,1
12,0,0,0,0,509,509,0,0,38,0
13,0,0,0,0,508,508,0,0,38,0
14,0,0,0,0,509,505,0,0,38,0
15,0,0,0,0,511,505,0,0,39,0
0,0,0,0,0,510,507,0,0,38,0
1,0,0,0,0,509,507,0,0,38,0
2,0,0,0,0,508,506,0,0,38,0
3,0,0,0,0,509,507,0,0,38,1
4,0,0,0,0,510,508,0,0,38,0
5,0,0,0,0,509,510,0,0,38,0
6,0,0,0,0,506,510,0,0,38,0
7,0,0,0,0,508,509,0,0,39,0
8,0,0,0,0,510,511,0,0,38,0
9,0,0,0,0,508,510,0,0,38,0
10,0,0,0,0,508,510,0,0,38,0
11,0,0,0,0,511,509,0,0,38,1
12,0,0,0,0,509,508,0,0,38,0
13,0,0,0,0,510,508,0,0,38,0
14,0,0,0,0,510,507,0,0,38,0
15,0,0,0,0,506,507,0,0,39,0
0,0,0,0,0,509,507,0,0,38,0
1,0,0,0,0,508,507,0,0,38,0
2,0,0,0,0,508,508,0,0,38,0
3,0,0,0,0,509,508,0,0,38,0
4,0,0,0,0,509,509,0,0,38,0
5,0,0,0,0,510,509,0,0,38,0
6,0,0,0,0,510,508,0,0,38,0
7,0,0,0,0,511,507,0,0,39,0
8,0,0,0,0,508,506,0,0,38,0
9,0,0,0,0,506,508,0,0,38,0
10,0,0,0,0,510,508,0,0,38,0
11,0,0,0,0,510,510,0,0,38,0
12,0,0,0,0,509,508,0,0,38,0
13,0,0,0,0,512,509,0,0,38,0
14,0,0,0,0,507,506,0,0,38,0
15,0,0,0,0,507,505,0,0,39,0
0,0,0,0,0,508,504,0,0,38,0
1,0,0,0,0,507,506,0,0,38,0
2,0,0,0,0,510,504,0,0,38,0
3,0,0,0,0,507,505,0,0,38,0
4,0,0,0,0,509,503,0,0,38,0
5,0,0,0,0,510,503,0,0,38,0
6,0,0,0,0,509,504,0,0,38,0
7,0,0,0,0,512,504,0,0,39,0
8,0,0,0,0,508,506,0,0,38,0
9,0,0,0,0,510,506,0,0,38,0
10,0,0,0,0,510,505,0,0,38,0
11,0,0,0,0,511,507,0,0,38,0
12,0,0,0,0,508,506,0,0,38,0
13,0,0,0,0,508,507,0,0,38,0
14,0,0,0,0,511,505,0,0,38,0
15,0,0,0,0,508,507,0,0,39,0
0,0,0,0,0,510,506,0,0,38,0
1,0,0,0,0,508,507,0,0,38,0
2,0,0,0,0,505,508,0,153,38,0
3,0,0,0,0,508,509,0,176,38,0
4,0,0,0,0,508,508,0,184,38,0
5,0,0,0,0,508,508,0,110,38,0
6,0,0,0,0,510,508,0,0,38,0
7,0,0,0,0,508,508,0,0,39,0
8,0,0,0,0,511,506,0,0,38,0
9,0,0,0,0,509,506,0,0,38,0
10,0,0,0,0,510,507,0,60,38,0
11,0,0,0,0,512,508,0,133,38,0
12,0,0,0,0,509,509,0,196,38,0
13,0,0,0,0,509,508,0,246,38,1
14,0,0,0,0,507,507,0,343,38,1
15,0,0,0,0,512,508,0,380,39,0
0,0,0,0,0,510,508,0,359,38,0
1,0,0,0,0,508,508,0,316,38,0
2,0,0,0,0,508,507,0,143,38,0
3,0,0,0,0,510,507,0,47,38,0
4,0,0,0,0,510,506,0,115,38,0
5,0,0,0,0,510,506,0,148,38,0
6,0,0,0,0,508,507,0,313,38,1
7,0,0,0,0,506,507,0,363,39,0
8,0,0,0,0,508,508,0,318,38,0
9,0,0,0,0,511,508,0,285,38,0
10,0,0,0,0,509,508,0,208,38,0
11,0,0,0,0,508,508,0,152,38,0
12,0,0,0,0,510,509,0,37,38,0
13,0,0,0,0,511,508,0,0,38,1
14,0,0,0,0,510,508,0,0,38,1
15,0,0,0,0,509,507,0,0,39,0
0,0,0,0,0,506,507,0,0,38,0
1,0,0,0,0,510,508,0,0,38,0
2,0,0,0,0,507,510,0,0,38,0
3,0,0,0,0,510,508,0,0,38,0
4,0,0,0,0,508,509,0,0,38,0
5,0,0,0,0,509,510,0,0,38,1
6,0,0,0,0,507,510,0,0,38,1
7,0,0,0,0,509,509,0,179,39,0
8,0,0,0,0,510,510,0,527,38,0
9,0,0,0,0,511,508,0,1017,38,0
10,0,0,0,0,510,508,0,1018,38,0
11,0,0,0,0,509,508,0,1018,38,0
12,0,0,0,0,511,509,0,1018,38,0
13,0,0,0,0,509,509,0,1018,38,0
14,0,0,0,0,509,510,0,1018,38,1
15,0,0,0,0,509,509,0,1018,39,0
0,0,0,0,0,510,510,0,1018,38,0
1,0,0,0,0,509,510,0,1018,38,0
2,0,0,0,0,508,510,0,1018,38,0
3,0,0,0,0,510,509,0,1018,38,0
4,0,0,0,0,508,508,0,1018,38,0
5,0,0,0,0,510,508,0,1018,38,0
6,0,0,0,0,510,508,0,1018,38,1
7,0,0,0,0,510,505,0,1018,39,1
8,0,0,0,0,510,506,0,1018,38,0
9,0,0,0,0,508,506,0,1018,38,0
10,0,0,0,0,508,506,0,1018,38,0
11,0,0,0,0,510,507,0,1018,38,0
12,0,0,0,0,511,507,0,1018,38,0
13,0,0,0,0,510,507,0,1018,38,0
14,0,0,0,0,508,507,0,1018,38,1
15,0,0,0,0,509,507,0,1018,39,1
0,0,0,0,0,509,504,0,1018,38,0
1,0,0,0,0,508,505,0,1018,38,0
2,0,0,0,0,511,504,0,1018,38,0
3,0,0,0,0,508,504,0,1018,38,0
4,0,0,0,0,509,505,0,1018,38,0
5,0,0,0,0,511,504,0,1018,38,0
6,0,0,0,0,510,504,0,1018,38,1
7,0,0,0,0,510,506,0,1018,39,1
8,0,0,0,0,507,506,0,1018,38,1
9,0,0,0,0,510,506,0,1018,38,0
10,0,0,0,0,505,505,0,1018,38,0
11,0,0,0,0,508,504,0,1017,38,0
12,0,0,0,0,509,506,0,578,38,0
13,0,0,0,0,508,507,0,13,38,0
14,0,0,0,0,509,507,0,0,38,1
15,0,0,0,0,510,506,0,0,39,1
0,0,0,0,0,508,505,0,0,38,1
1,0,0,0,0,510,505,0,0,38,0
2,0,0,0,0,509,505,0,0,38,0
3,0,0,0,0,510,504,0,0,38,0
4,0,0,0,0,510,504,0,0,38,0
5,0,0,0,0,511,505,0,0,38,0
6,0,0,0,0,510,505,0,0,38,1
7,0,0,0,0,507,506,0,0,39,1
8,0,0,0,0,510,506,0,0,38,1
9,0,0,0,0,508,505,0,0,38,1
10,0,0,0,0,511,505,0,0,38,0
11,0,0,0,0,509,505,0,0,38,0
12,0,0,0,0,507,505,0,0,38,0
13,0,0,0,0,508,504,0,0,38,0
14,0,0,0,0,508,503,0,0,38,1
15,0,0,0,0,510,503,0,0,39,1
0,0,0,0,0,511,504,0,0,38,1
1,0,0,0,0,508,505,0,0,38,1
2,0,0,0,0,509,507,0,0,38,0
3,0,0,0,0,507,506,0,0,38,0
4,0,0,0,0,510,508,0,0,38,0
5,0,0,0,0,508,510,0,0,38,0
6,0,0,0,0,508,511,0,0,38,1
7,0,0,0,0,507,510,0,0,39,1
8,0,0,0,0,508,511,0,0,38,1
9,0,0,0,0,510,510,0,0,38,1
10,0,0,0,0,511,510,0,0,38,0
11,0,0,0,0,509,510,0,322,38,0
12,0,0,0,0,509,510,0,790,38,0
13,0,0,0,0,510,511,0,1018,38,0
14,0,0,0,0,509,510,0,1018,38,0
15,0,0,0,0,513,510,0,1018,39,0
0,0,0,0,0,509,510,0,1018,38,1
1,0,0,0,0,510,510,0,1018,38,1
2,0,0,0,0,510,510,0,1018,38,0
3,0,0,0,0,508,510,0,1018,38,0
4,0,0,0,0,509,508,0,1018,38,0
5,0,0,0,0,508,508,0,1018,38,0
6,0,0,0,0,509,506,0,1018,38,0
7,0,0,0,0,508,506,0,1018,39,0
8,0,0,0,0,510,505,0,1018,38,1
9,0,0,0,0,508,504,0,1018,38,1
10,0,0,0,0,509,506,0,1018,38,0
11,0,0,0,0,509,506,0,1018,38,0
12,0,0,0,0,509,506,0,1018,38,0
13,0,0,0,0,507,507,0,1018,38,0
14,0,0,0,0,508,505,0,1018,38,0
15,0,0,0,0,508,507,0,1018,39,0
0,0,0,0,0,508,508,0,1018,38,1
1,0,0,0,0,509,509,0,1018,38,1
2,0,0,0,0,509,510,0,1018,38,1
3,0,0,0,0,511,509,0,1018,38,0
4,0,0,0,0,510,510,0,1018,38,0
5,0,0,0,0,512,510,0,1018,38,0
6,0,0,0,0,511,510,0,1018,38,0
7,0,0,0,0,509,509,0,1018,39,0
8,0,0,0,0,510,510,0,1018,38,0
9,0,0,0,0,509,509,0,1018,38,1
10,0,0,0,0,511,509,0,1018,38,0
11,0,0,0,0,508,509,0,1018,38,0
12,0,0,0,0,511,508,0,1018,38,0
13,0,0,0,0,509,508,0,1018,38,0
14,0,0,0,0,508,508,0,1018,38,0
15,0,0,0,0,508,510,0,1018,39,0
0,0,0,0,0,508,509,0,1018,38,0
1,0,0,0,0,510,508,0,1018,38,0
2,0,0,0,0,512,510,0,1018,38,0
3,0,0,0,0,511,510,0,1018,38,1
4,0,0,0,0,509,509,0,1018,38,0
5,0,0,0,0,510,508,0,1018,38,0
6,0,0,0,0,508,507,0,1018,38,0
7,0,0,0,0,510,509,0,1018,39,0
8,0,0,0,0,508,507,0,1018,38,0
9,0,0,0,0,508,507,0,1018,38,0
10,0,0,0,0,510,507,0,1018,38,0
11,0,0,0,0,511,508,0,1018,38,1
12,0,0,0,0,511,507,0,1018,38,0
13,0,0,0,0,507,509,0,1018,38,0
14,0,0,0,0,508,508,0,1018,38,0
15,0,0,0,0,509,508,0,1018,39,0
0,0,0,0,0,508,508,0,1018,38,0
1,0,0,0,0,511,510,0,758,38,0
2,0,0,0,0,510,510,0,608,38,0
3,0,0,0,0,507,509,0,406,38,1
4,0,0,0,0,508,508,0,237,38,0
5,0,0,0,0,508,508,0,78,38,0
6,0,0,0,0,510,508,0,0,38,0
7,0,0,0,0,508,505,0,0,39,0
8,0,0,0,0,509,505,0,0,38,0
9,0,0,0,0,507,505,0,0,38,0
10,0,0,0,0,509,505,0,0,38,0
11,0,0,0,0,509,505,0,0,38,1
12,0,0,0,0,508,506,0,0,38,0
13,0,0,0,0,508,506,0,0,38,0
14,0,0,0,0,508,506,0,0,38,0
15,0,0,0,0,511,505,0,0,39,0
0,0,0,0,0,511,507,0,0,38,0
1,0,0,0,0,508,507,0,0,38,0
2,0,0,0,0,509,509,0,0,38,0
3,0,0,0,0,508,509,0,0,38,1
4,0,0,0,0,509,509,0,0,38,0
5,0,0,0,0,510,507,0,0,38,0
6,0,0,0,0,507,507,0,0,38,0
7,0,0,0,0,508,508,0,0,39,0
8,0,0,0,0,509,510,0,0,38,0
9,0,0,0,0,510,509,0,0,38,0
10,0,0,0,0,510,510,0,0,38,0
11,0,0,0,0,509,510,0,0,38,0
12,0,0,0,0,508,510,0,0,38,1
13,0,0,0,0,509,510,0,0,38,0
14,0,0,0,0,508,510,0,0,38,0
15,0,0,0,0,511,509,0,0,39,0
0,0,0,0,0,508,508,0,0,38,0
1,0,0,0,0,510,506,0,0,38,0
2,0,0,0,0,510,507,0,0,38,0
3,0,0,0,0,511,507,0,0,38,0
4,0,0,0,0,510,505,0,0,38,1
5,0,0,0,0,507,505,0,0,38,0
6,0,0,0,0,508,504,0,0,38,0
7,0,0,0,0,506,506,0,189,39,0
8,0,0,0,0,508,508,0,271,38,0
9,0,0,0,0,512,509,0,423,38,0
10,0,0,0,0,508,509,0,766,38,0
11,0,0,0,0,508,509,0,1018,38,0
12,0,0,0,0,508,509,0,1018,38,0
13,0,0,0,0,510,510,0,1018,38,0
14,0,0,0,0,509,509,0,1018,38,0
15,0,0,0,0,508,508,0,1018,39,0
0,0,0,0,0,510,508,0,1018,38,0
1,0,0,0,0,511,507,0,1018,38,0
2,0,0,0,0,511,506,0,1018,38,0
3,0,0,0,0,511,507,0,1018,38,0
4,0,0,0,0,510,507,0,1018,38,0
5,0,0,0,0,509,507,0,1018,38,0
6,0,0,0,0,509,507,0,1018,38,0
7,0,0,0,0,509,507,0,1018,39,0
8,0,0,0,0,508,507,0,1018,38,0
9,0,0,0,0,507,507,0,1018,38,0
10,0,0,0,0,510,506,0,1018,38,0
11,0,0,0,0,509,504,0,1018,38,0
12,0,0,0,0,510,506,0,1018,38,0
13,0,0,0,0,508,507,0,1018,38,1
14,0,0,0,0,507,507,0,1018,38,1
15,0,0,0,0,508,506,0,1018,39,0
0,0,0,0,0,509,507,0,1018,38,0
1,0,0,0,0,510,507,0,1018,38,0
2,0,0,0,0,510,507,0,1018,38,0
3,0,0,0,0,508,507,0,1018,38,0
4,0,0,0,0,508,507,0,1018,38,0
5,0,0,0,0,509,507,0,1018,38,0
6,0,0,0,0,508,505,0,1018,38,1
7,0,0,0,0,509,504,0,1018,39,0
8,0,0,0,0,508,504,0,1018,38,0
9,0,0,0,0,508,505,0,1018,38,0
10,0,0,0,0,508,504,0,1018,38,0
11,0,0,0,0,511,506,0,1018,38,0
12,0,0,0,0,510,505,0,1018,38,0
13,0,0,0,0,509,506,0,1018,38,0
14,0,0,0,0,509,506,0,1018,38,1
15,0,0,0,0,510,506,0,1018,39,0
0,0,0,0,0,508,505,0,1018,38,0
1,0,0,0,0,508,505,0,1018,38,0
2,0,0,0,0,510,505,0,1018,38,0
3,0,0,0,0,510,504,0,1018,38,0
4,0,0,0,0,511,505,0,1018,38,0
5,0,0,0,0,510,506,0,1018,38,0
6,0,0,0,0,512,507,0,1018,38,1
7,0,0,0,0,509,508,0,1018,39,0
8,0,0,0,0,510,508,0,1018,38,0
9,0,0,0,0,508,507,0,1018,38,0
10,0,0,0,0,508,508,0,1018,38,0
11,0,0,0,0,512,507,0,1018,38,0
12,0,0,0,0,509,509,0,1018,38,0
13,0,0,0,0,510,508,0,1018,38,0
14,0,0,0,0,510,507,0,1018,38,1
15,0,0,0,0,509,508,0,1018,39,1
0,0,0,0,0,510,508,0,1018,38,0
1,0,0,0,0,508,507,0,1018,38,0
2,0,0,0,0,510,508,0,1018,38,0
3,0,0,0,0,510,507,0,1018,38,0
4,0,0,0,0,511,509,0,1018,38,0
5,0,0,0,0,509,510,0,1018,38,0
6,0,0,0,0,508,509,0,1018,38,1
7,0,0,0,0,508,509,0,1018,39,1
8,0,0,0,0,506,510,0,1018,38,0
9,0,0,0,0,510,512,0,1018,38,0
10,0,0,0,0,508,512,0,1018,38,0
11,0,0,0,0,508,512,0,1018,38,0
12,0,0,0,0,508,510,0,1018,38,0
13,0,0,0,0,510,508,0,1018,38,0
14,0,0,0,0,510,507,0,1018,38,1
15,0,0,0,0,511,508,0,1018,39,1
0,0,0,0,0,510,507,0,1018,38,1
1,0,0,0,0,509,509,0,1018,38,0
2,0,0,0,0,509,511,0,1018,38,0
3,0,0,0,0,509,510,0,1018,38,0
4,0,0,0,0,511,511,0,1018,38,0
5,0,0,0,0,508,510,0,1018,38,0
6,0,0,0,0,510,508,0,1018,38,1
7,0,0,0,0,509,508,0,1018,39,1
8,0,0,0,0,508,508,0,1018,38,1
9,0,0,0,0,509,508,0,1018,38,1
10,0,0,0,0,509,509,0,1018,38,0
11,0,0,0,0,508,508,0,1018,38,0
12,0,0,0,0,508,507,0,1018,38,0
13,0,0,0,0,512,509,0,1018,38,0
14,0,0,0,0,511,509,0,1018,38,1
15,0,0,0,0,511,510,0,1018,39,1
0,0,0,0,0,509,510,0,1018,38,1
1,0,0,0,0,508,510,0,1018,38,0
2,0,0,0,0,510,509,0,1018,38,0
3,0,0,0,0,510,508,0,1018,38,0
4,0,0,0,0,506,508,0,1018,38,0
5,0,0,0,0,509,508,0,1018,38,0
6,0,0,0,0,508,510,0,1018,38,1
7,0,0,0,0,510,509,0,1018,39,1
8,0,0,0,0,510,508,0,1018,38,1
9,0,0,0,0,507,507,0,1018,38,1
10,0,0,0,0,511,508,0,1018,38,0
11,0,0,0,0,508,505,0,1018,38,0
12,0,0,0,0,509,507,0,1017,38,0
13,0,0,0,0,510,508,0,1018,38,0
14,0,0,0,0,510,506,0,1018,38,1
15,0,0,0,0,510,506,0,1018,39,1
0,0,0,0,0,510,508,0,1018,38,1
1,0,0,0,0,511,508,0,1018,38,1
2,0,0,0,0,510,507,0,1018,38,0
3,0,0,0,0,511,506,0,1018,38,0
4,0,0,0,0,508,506,0,1018,38,0
5,0,0,0,0,510,506,0,1018,38,0
6,0,0,0,0,511,505,0,1018,38,0
7,0,0,0,0,510,505,0,1018,39,0
8,0,0,0,0,507,504,0,1017,38,1
9,0,0,0,0,508,504,0,1017,38,1
10,0,0,0,0,508,506,0,1017,38,0
11,0,0,0,0,510,506,0,965,38,0
12,0,0,0,0,509,507,0,976,38,0
13,0,0,0,0,507,508,0,1017,38,0
14,0,0,0,0,508,509,0,1018,38,0
15,0,0,0,0,511,509,0,1018,39,0
0,0,0,0,0,511,508,0,1018,38,1
1,0,0,0,0,512,507,0,1018,38,1
2,0,0,0,0,510,508,0,889,38,0
3,0,0,0,0,511,507,0,727,38,0
4,0,0,0,0,509,505,0,553,38,0
5,0,0,0,0,508,506,0,416,38,0
6,0,0,0,0,510,507,0,403,38,0
7,0,0,0,0,507,508,0,464,39,0
8,0,0,0,0,508,507,0,575,38,1
9,0,0,0,0,508,507,0,850,38,1
10,0,0,0,0,508,507,0,1018,38,1
11,0,0,0,0,510,505,0,1018,38,1
12,0,0,0,0,505,507,0,1018,38,0
13,0,0,0,0,509,507,0,1018,38,0
14,0,0,0,0,511,507,0,1018,38,0
15,0,0,0,0,510,505,0,1018,39,0
0,0,0,0,0,508,508,0,1018,38,0
1,0,0,0,0,508,508,0,1018,38,1
2,0,0,0,0,509,508,0,1018,38,1
3,0,0,0,0,512,508,0,1018,38,1
4,0,0,0,0,509,510,0,1018,38,0
5,0,0,0,0,511,508,0,1018,38,0
6,0,0,0,0,511,508,0,1018,38,0
7,0,0,0,0,511,507,0,1018,39,0
8,0,0,0,0,509,507,0,1018,38,0
9,0,0,0,0,510,507,0,1018,38,1
10,0,0,0,0,508,508,0,1018,38,0
11,0,0,0,0,507,510,0,1017,38,1
12,0,0,0,0,508,509,0,708,38,0
13,0,0,0,0,508,507,0,423,38,0
14,0,0,0,0,509,506,0,201,38,0
15,0,0,0,0,511,506,0,38,39,0
0,0,0,0,0,508,506,0,0,38,0
1,0,0,0,0,510,507,0,0,38,1
2,0,0,0,0,508,506,0,0,38,1
3,0,0,0,0,512,507,0,0,38,1
4,0,0,0,0,510,508,0,0,38,0
5,0,0,0,0,508,508,0,0,38,0
6,0,0,0,0,511,508,0,0,38,0
7,0,0,0,0,508,509,0,0,39,0
8,0,0,0,0,507,508,0,0,38,0
9,0,0,0,0,508,508,0,0,38,0
10,0,0,0,0,508,509,0,0,38,0
11,0,0,0,0,508,509,0,0,38,1
12,0,0,0,0,509,507,0,0,38,0
13,0,0,0,0,509,507,0,0,38,0
14,0,0,0,0,508,506,0,0,38,0
15,0,0,0,0,508,508,0,0,39,0
0,0,0,0,0,510,507,0,0,38,0
1,0,0,0,0,508,508,0,0,38,0
2,0,0,0,0,509,508,0,0,38,0
3,0,0,0,0,510,508,0,0,38,1
4,0,0,0,0,510,507,0,0,38,1
5,0,0,0,0,509,507,0,0,38,0
6,0,0,0,0,510,507,0,0,38,0
7,0,0,0,0,509,505,0,0,39,0
8,0,0,0,0,508,507,0,0,38,0
9,0,0,0,0,511,508,0,0,38,0
10,0,0,0,0,507,509,0,0,38,0
11,0,0,0,0,509,509,0,0,38,1
12,0,0,0,0,511,509,0,0,38,1
13,0,0,0,0,508,508,0,0,38,0
14,0,0,0,0,507,509,0,0,38,0
15,0,0,0,0,509,509,0,0,39,0
0,0,0,0,0,507,510,0,0,38,0
1,0,0,0,0,509,511,0,0,38,0
2,0,0,0,0,510,512,0,0,38,0
3,0,0,0,0,510,513,0,0,38,1
4,0,0,0,0,508,510,0,0,38,1
5,0,0,0,0,509,508,0,0,38,0
6,0,0,0,0,510,507,0,0,38,0
7,0,0,0,0,507,507,0,0,39,0
8,0,0,0,0,507,507,0,0,38,0
9,0,0,0,0,511,507,0,0,38,0
10,0,0,0,0,511,507,0,0,38,0
11,0,0,0,0,510,508,0,0,38,1
12,0,0,0,0,512,508,0,0,38,0
13,0,0,0,0,508,508,0,0,38,1
14,0,0,0,0,506,507,0,0,38,0
15,0,0,0,0,507,506,0,0,39,0
0,0,0,0,0,510,505,0,0,38,0
1,0,0,0,0,508,506,0,0,38,0
2,0,0,0,0,508,507,0,0,38,0
3,0,0,0,0,510,508,0,0,38,0
4,0,0,0,0,508,507,0,0,38,0
5,0,0,0,0,508,507,0,0,38,0
6,0,0,0,0,511,507,0,0,38,0
7,0,0,0,0,509,508,0,0,39,0
8,0,0,0,0,512,509,0,0,38,0
9,0,0,0,0,511,509,0,0,38,0
10,0,0,0,0,511,509,0,0,38,0
11,0,0,0,0,506,510,0,0,38,0
12,0,0,0,0,507,512,0,0,38,1
13,0,0,0,0,510,511,0,0,38,1
14,0,0,0,0,508,511,0,0,38,1
15,0,0,0,0,508,511,0,0,39,0
0,0,0,0,0,509,510,0,0,38,0
1,0,0,0,0,507,511,0,0,38,0
2,0,0,0,0,512,511,0,0,38,0
3,0,0,0,0,510,510,0,0,38,0
4,0,0,0,0,509,510,0,0,38,0
5,0,0,0,0,508,507,0,0,38,0
6,0,0,0,0,508,508,0,200,38,1
7,0,0,0,0,510,507,0,399,39,0
8,0,0,0,0,509,508,0,687,38,0
9,0,0,0,0,511,507,0,846,38,0
10,0,0,0,0,511,507,0,731,38,0
11,0,0,0,0,509,508,0,615,38,0
12,0,0,0,0,509,508,0,562,38,0
13,0,0,0,0,509,507,0,577,38,0
14,0,0,0,0,511,505,0,685,38,1
15,0,0,0,0,511,507,0,848,39,0
0,0,0,0,0,508,507,0,1017,38,0
1,0,0,0,0,507,507,0,1018,38,0
2,0,0,0,0,508,509,0,1018,38,0
3,0,0,0,0,511,508,0,1018,38,0
4,0,0,0,0,512,507,0,1017,38,0
5,0,0,0,0,508,508,0,1018,38,0
6,0,0,0,0,510,507,0,1018,38,1
7,0,0,0,0,508,507,0,1018,39,0
8,0,0,0,0,509,506,0,1017,38,0
9,0,0,0,0,509,506,0,844,38,0
10,0,0,0,0,508,508,0,526,38,0
11,0,0,0,0,512,509,0,198,38,0
12,0,0,0,0,508,508,0,2,38,0
13,0,0,0,0,511,509,0,0,38,0
14,0,0,0,0,511,508,0,0,38,1
15,0,0,0,0,510,508,0,0,39,0
0,0,0,0,0,509,508,0,184,38,0
1,0,0,0,0,509,507,0,384,38,0
2,0,0,0,0,509,509,0,578,38,0
3,0,0,0,0,510,509,0,844,38,0
4,0,0,0,0,507,507,0,836,38,0
5,0,0,0,0,508,508,0,754,38,0
6,0,0,0,0,510,508,0,698,38,1
7,0,0,0,0,508,507,0,738,39,0
8,0,0,0,0,510,507,0,822,38,0
9,0,0,0,0,509,508,0,1017,38,0
10,0,0,0,0,508,508,0,1018,38,0
11,0,0,0,0,509,509,0,1018,38,0
12,0,0,0,0,508,512,0,1018,38,0
13,0,0,0,0,510,513,0,1018,38,0
14,0,0,0,0,508,512,0,1018,38,1
15,0,0,0,0,510,510,0,1018,39,0
0,0,0,0,0,508,508,0,1018,38,0
1,0,0,0,0,510,508,0,1018,38,0
2,0,0,0,0,510,508,0,1018,38,0
3,0,0,0,0,507,508,0,1018,38,0
4,0,0,0,0,509,509,0,1017,38,0
5,0,0,0,0,509,508,0,727,38,0
6,0,0,0,0,511,508,0,487,38,1
7,0,0,0,0,510,509,0,368,39,0
8,0,0,0,0,507,510,0,402,38,0
9,0,0,0,0,508,508,0,664,38,0
10,0,0,0,0,510,507,0,919,38,0
11,0,0,0,0,509,508,0,1017,38,0
12,0,0,0,0,509,508,0,1018,38,0
13,0,0,0,0,508,508,0,1018,38,0
14,0,0,0,0,510,508,0,1018,38,1
15,0,0,0,0,510,508,0,1018,39,1
0,0,0,0,0,510,507,0,1018,38,0
1,0,0,0,0,511,507,0,1018,38,0
2,0,0,0,0,508,507,0,1018,38,0
3,0,0,0,0,512,508,0,1018,38,0
4,0,0,0,0,511,508,0,1018,38,0
5,0,0,0,0,510,509,0,1018,38,0
6,0,0,0,0,511,510,0,1018,38,1
7,0,0,0,0,508,510,0,1018,39,1
8,0,0,0,0,510,509,0,1018,38,1
9,0,0,0,0,510,508,0,1018,38,0
10,0,0,0,0,507,508,0,1018,38,0
11,0,0,0,0,512,508,0,1018,38,0
12,0,0,0,0,510,507,0,1018,38,0
13,0,0,0,0,508,507,0,1018,38,0
14,0,0,0,0,509,508,0,1018,38,1
15,0,0,0,0,511,508,0,1018,39,0
0,0,0,0,0,509,507,0,1018,38,1
1,0,0,0,0,508,507,0,1018,38,1
2,0,0,0,0,507,506,0,1018,38,0
3,0,0,0,0,511,506,0,1018,38,0
4,0,0,0,0,507,505,0,1018,38,0
5,0,0,0,0,507,507,0,1018,38,0
6,0,0,0,0,506,507,0,762,38,0
7,0,0,0,0,507,508,0,736,39,0
