timestamp,0,1,2,3,4,5,6,7,8,9
14,0,0,0,0,516,507,0,1018,38,0
15,0,0,0,0,572,506,0,619,38,0
0,0,0,0,0,562,506,0,80,38,0
1,0,0,0,0,496,506,0,0,38,0
2,0,0,0,0,474,506,0,0,38,0
3,0,0,0,0,484,504,0,0,38,0
4,0,0,0,0,465,505,0,0,38,0
5,0,0,0,0,488,507,0,0,38,0
6,0,0,0,0,542,507,0,0,38,0
7,0,0,0,0,545,508,0,0,38,0
8,0,0,0,0,535,508,0,0,38,0
9,0,0,0,0,530,508,0,0,38,0
10,0,0,0,0,508,510,0,0,38,0
11,0,0,0,0,493,511,0,0,38,0
12,0,0,0,0,510,511,0,0,38,0
13,0,0,0,0,506,511,0,0,38,0
14,0,0,0,0,537,509,0,0,38,0
15,0,0,0,0,551,509,0,0,38,0
0,0,0,0,0,546,507,0,0,38,0
1,0,0,0,0,532,506,0,0,38,0
2,0,0,0,0,511,507,0,0,39,0
3,0,0,0,0,463,507,0,0,38,0
4,0,0,0,0,458,508,0,0,38,0
5,0,0,0,0,470,508,0,0,38,0
6,0,0,0,0,489,509,0,0,38,0
7,0,0,0,0,496,509,0,0,38,0
8,0,0,0,0,500,510,0,0,38,0
9,0,0,0,0,515,511,0,0,38,0
10,0,0,0,0,529,510,0,0,39,0
11,0,0,0,0,548,509,0,0,38,0
12,0,0,0,0,549,508,0,0,38,0
13,0,0,0,0,554,507,0,0,38,0
14,0,0,0,0,524,508,0,0,38,0
15,0,0,0,0,518,509,0,0,38,0
0,0,0,0,0,523,509,0,421,38,0
1,0,0,0,0,520,509,0,1018,38,0
2,0,0,0,0,506,508,0,1018,39,0
3,0,0,0,0,526,507,0,1018,38,0
4,0,0,0,0,533,506,0,1018,38,0
5,0,0,0,0,526,506,0,1018,38,0
6,0,0,0,0,513,506,0,1018,38,0
7,0,0,0,0,471,506,0,1018,38,0
8,0,0,0,0,450,506,0,1018,38,0
9,0,0,0,0,460,506,0,1018,38,0
10,0,0,0,0,476,507,0,1018,38,0
11,0,0,0,0,502,507,0,1018,38,0
12,0,0,0,0,505,506,0,1018,38,0
13,0,0,0,0,512,505,0,1018,38,0
14,0,0,0,0,526,507,0,1018,38,0
15,0,0,0,0,540,506,0,1018,38,0
0,0,0,0,0,539,506,0,1018,38,0
1,0,0,0,0,517,506,0,1018,38,0
2,0,0,0,0,504,507,0,1018,38,0
3,0,0,0,0,507,506,0,1018,38,0
4,0,0,0,0,494,508,0,1018,38,0
5,0,0,0,0,480,508,0,1018,38,0
6,0,0,0,0,515,510,0,1018,38,0
7,0,0,0,0,508,510,0,1018,38,0
8,0,0,0,0,507,510,0,1018,38,0
9,0,0,0,0,519,511,0,1018,38,0
10,0,0,0,0,528,510,0,1018,39,0
11,0,0,0,0,499,508,0,1018,38,0
12,0,0,0,0,492,507,0,1018,38,0
13,0,0,0,0,504,506,0,1017,38,0
14,0,0,0,0,531,507,0,1017,38,0
15,0,0,0,0,563,505,0,847,38,0
0,0,0,0,0,552,505,0,705,38,0
1,0,0,0,0,521,504,0,619,38,0
2,0,0,0,0,494,504,0,633,39,0
3,0,0,0,0,472,506,0,662,38,0
4,0,0,0,0,467,504,0,777,38,0
5,0,0,0,0,491,504,0,1018,38,0
6,0,0,0,0,489,505,0,1018,38,0
7,0,0,0,0,495,505,0,1018,38,0
8,0,0,0,0,507,505,0,1018,38,0
9,0,0,0,0,510,506,0,1018,38,0
10,0,0,0,0,498,504,0,1018,39,0
11,0,0,0,0,480,508,0,1017,38,0
12,0,0,0,0,466,509,0,1018,38,0
13,0,0,0,0,489,508,0,1017,38,0
14,0,0,0,0,522,507,0,1018,38,0
15,0,0,0,0,529,507,0,835,38,0
0,0,0,0,0,532,506,0,578,38,0
1,0,0,0,0,527,506,0,113,38,0
2,0,0,0,0,528,506,0,0,38,0
3,0,0,0,0,523,505,0,0,38,0
4,0,0,0,0,520,507,0,0,38,0
5,0,0,0,0,516,506,0,0,38,0
6,0,0,0,0,508,506,0,0,38,0
7,0,0,0,0,504,507,0,0,38,0
8,0,0,0,0,514,505,0,0,38,0
9,0,0,0,0,516,505,0,0,38,0
10,0,0,0,0,519,505,0,0,39,0
11,0,0,0,0,506,506,0,0,38,0
12,0,0,0,0,505,507,0,0,38,0
13,0,0,0,0,550,506,0,0,38,0
14,0,0,0,0,545,505,0,0,38,0
15,0,0,0,0,511,505,0,0,38,0
0,0,0,0,0,506,506,0,0,38,0
1,0,0,0,0,536,506,0,0,38,0
2,0,0,0,0,565,507,0,0,38,0
3,0,0,0,0,553,507,0,0,38,0
4,0,0,0,0,510,506,0,0,38,0
5,0,0,0,0,496,508,0,0,38,0
6,0,0,0,0,463,508,0,0,38,0
7,0,0,0,0,408,508,0,0,38,0
8,0,0,0,0,399,508,0,0,38,0
9,0,0,0,0,443,508,0,0,38,0
10,0,0,0,0,448,507,0,0,39,0
11,0,0,0,0,464,508,0,0,38,0
12,0,0,0,0,511,507,0,0,38,0
13,0,0,0,0,546,508,0,0,38,0
14,0,0,0,0,564,508,0,0,38,0
15,0,0,0,0,569,508,0,0,38,0
0,0,0,0,0,582,506,0,0,38,0
1,0,0,0,0,590,507,0,0,38,0
2,0,0,0,0,568,507,0,0,39,0
3,0,0,0,0,511,507,0,0,38,0
4,0,0,0,0,440,506,0,0,38,0
5,0,0,0,0,412,507,0,0,38,0
6,0,0,0,0,461,507,0,0,38,0
7,0,0,0,0,491,508,0,0,38,0
8,0,0,0,0,528,508,0,0,38,0
9,0,0,0,0,548,510,0,0,38,0
10,0,0,0,0,551,507,0,0,38,0
11,0,0,0,0,518,508,0,0,38,0
12,0,0,0,0,501,508,0,0,38,0
13,0,0,0,0,483,508,0,0,38,0
14,0,0,0,0,474,509,0,0,38,0
15,0,0,0,0,504,509,0,0,38,0
0,0,0,0,0,537,509,0,0,38,0
1,0,0,0,0,558,507,0,0,38,0
2,0,0,0,0,561,506,0,0,39,0
3,0,0,0,0,547,507,0,0,38,0
4,0,0,0,0,517,508,0,0,38,0
5,0,0,0,0,487,507,0,0,38,0
6,0,0,0,0,483,509,0,0,38,0
7,0,0,0,0,479,508,0,0,38,0
8,0,0,0,0,455,508,0,0,38,0
9,0,0,0,0,472,508,0,0,38,0
10,0,0,0,0,503,508,0,0,39,0
11,0,0,0,0,541,507,0,0,38,0
12,0,0,0,0,566,509,0,0,38,0
13,0,0,0,0,559,508,0,0,38,0
14,0,0,0,0,548,506,0,0,38,0
15,0,0,0,0,555,504,0,0,38,0
0,0,0,0,0,531,505,0,0,38,0
1,0,0,0,0,487,507,0,0,38,0
2,0,0,0,0,448,507,0,0,39,0
3,0,0,0,0,447,507,0,0,38,0
4,0,0,0,0,457,508,0,0,38,0
5,0,0,0,0,443,509,0,0,38,0
6,0,0,0,0,475,509,0,0,38,0
7,0,0,0,0,502,509,0,0,38,0
8,0,0,0,0,512,510,0,0,38,0
9,0,0,0,0,526,509,0,0,38,0
10,0,0,0,0,523,511,0,0,38,0
11,0,0,0,0,528,509,0,0,38,0
12,0,0,0,0,532,508,0,0,38,0
13,0,0,0,0,523,507,0,0,38,0
14,0,0,0,0,529,507,0,0,38,0
15,0,0,0,0,534,507,0,0,38,0
0,0,0,0,0,528,505,0,0,38,0
1,0,0,0,0,521,505,0,0,38,0
2,0,0,0,0,495,506,0,0,38,0
3,0,0,0,0,491,506,0,0,38,0
4,0,0,0,0,508,506,0,0,38,0
5,0,0,0,0,512,508,0,0,38,0
6,0,0,0,0,512,508,0,0,38,0
7,0,0,0,0,473,509,0,0,38,0
8,0,0,0,0,475,507,0,0,38,0
9,0,0,0,0,483,506,0,0,38,0
10,0,0,0,0,530,508,0,0,38,0
11,0,0,0,0,553,508,0,0,38,0
12,0,0,0,0,554,507,0,0,38,0
13,0,0,0,0,547,507,0,0,38,0
14,0,0,0,0,529,506,0,0,38,0
15,0,0,0,0,510,506,0,0,38,0
0,0,0,0,0,476,507,0,0,38,0
1,0,0,0,0,465,509,0,0,38,0
2,0,0,0,0,524,508,0,0,39,0
3,0,0,0,0,561,508,0,0,38,0
4,0,0,0,0,565,509,0,0,38,0
5,0,0,0,0,534,508,0,0,38,0
6,0,0,0,0,496,510,0,0,38,0
7,0,0,0,0,459,508,0,0,38,0
8,0,0,0,0,424,508,0,0,38,0
9,0,0,0,0,423,507,0,0,38,0
10,0,0,0,0,455,508,0,0,38,0
11,0,0,0,0,466,508,0,0,38,0
12,0,0,0,0,488,506,0,0,38,0
13,0,0,0,0,522,507,0,0,38,0
14,0,0,0,0,525,507,0,0,38,0
15,0,0,0,0,503,505,0,0,38,0
0,0,0,0,0,491,506,0,0,38,0
1,0,0,0,0,504,508,0,0,38,0
2,0,0,0,0,521,507,0,0,39,0
3,0,0,0,0,552,507,0,0,38,0
4,0,0,0,0,592,507,0,0,38,0
5,0,0,0,0,576,508,0,0,38,0
6,0,0,0,0,585,509,0,0,38,0
7,0,0,0,0,576,509,0,0,38,0
8,0,0,0,0,546,508,0,0,38,0
9,0,0,0,0,531,508,0,0,38,0
10,0,0,0,0,503,508,0,0,38,0
11,0,0,0,0,466,507,0,0,38,0
12,0,0,0,0,460,505,0,0,38,0
13,0,0,0,0,479,506,0,0,38,0
14,0,0,0,0,474,507,0,0,38,0
15,0,0,0,0,473,507,0,0,38,0
0,0,0,0,0,480,508,0,0,38,0
1,0,0,0,0,471,507,0,0,38,0
2,0,0,0,0,479,507,0,0,39,0
3,0,0,0,0,463,506,0,0,38,0
4,0,0,0,0,472,507,0,0,38,0
5,0,0,0,0,496,506,0,0,38,0
6,0,0,0,0,491,508,0,0,38,0
7,0,0,0,0,513,506,0,0,38,0
8,0,0,0,0,533,507,0,0,38,0
9,0,0,0,0,529,507,0,0,38,0
10,0,0,0,0,520,504,0,0,39,0
11,0,0,0,0,500,504,0,0,38,0
12,0,0,0,0,502,507,0,0,38,0
13,0,0,0,0,538,508,0,0,38,0
14,0,0,0,0,558,510,0,0,38,0
15,0,0,0,0,558,508,0,0,38,0
0,0,0,0,0,529,508,0,451,38,0
1,0,0,0,0,512,507,0,1010,38,0
2,0,0,0,0,522,508,0,1018,39,0
3,0,0,0,0,527,509,0,1018,38,0
4,0,0,0,0,526,508,0,1018,38,0
5,0,0,0,0,522,507,0,1018,38,0
6,0,0,0,0,514,508,0,1018,38,0
7,0,0,0,0,512,508,0,1018,38,0
8,0,0,0,0,511,508,0,1018,38,0
9,0,0,0,0,501,510,0,1018,38,0
10,0,0,0,0,513,510,0,1018,39,0
11,0,0,0,0,511,511,0,1018,38,0
12,0,0,0,0,504,509,0,1018,38,0
13,0,0,0,0,507,510,0,1017,38,0
14,0,0,0,0,509,509,0,684,38,0
15,0,0,0,0,491,509,0,477,38,0
0,0,0,0,0,481,509,0,379,38,0
1,0,0,0,0,481,509,0,524,38,0
2,0,0,0,0,466,511,0,615,39,0
3,0,0,0,0,479,510,0,673,38,0
4,0,0,0,0,519,510,0,872,38,0
5,0,0,0,0,515,508,0,1017,38,0
6,0,0,0,0,531,509,0,1018,38,0
7,0,0,0,0,555,508,0,1018,38,0
8,0,0,0,0,554,511,0,1018,38,0
9,0,0,0,0,512,511,0,1018,38,0
10,0,0,0,0,502,511,0,1018,38,0
11,0,0,0,0,537,512,0,1018,38,0
12,0,0,0,0,558,512,0,1018,38,0
13,0,0,0,0,549,513,0,1018,38,0
14,0,0,0,0,526,512,0,1018,38,0
15,0,0,0,0,502,513,0,1018,38,0
0,0,0,0,0,457,513,0,1018,38,0
1,0,0,0,0,433,512,0,1018,38,0
2,0,0,0,0,415,511,0,1018,39,0
3,0,0,0,0,418,510,0,1018,38,0
4,0,0,0,0,455,509,0,1018,38,0
5,0,0,0,0,492,510,0,1018,38,0
6,0,0,0,0,557,509,0,1018,38,0
7,0,0,0,0,587,510,0,1018,38,0
8,0,0,0,0,566,509,0,1018,38,0
9,0,0,0,0,536,508,0,1018,38,0
10,0,0,0,0,518,508,0,1018,38,0
11,0,0,0,0,493,508,0,1018,38,0
12,0,0,0,0,488,509,0,1018,38,0
13,0,0,0,0,502,508,0,1018,38,0
14,0,0,0,0,516,508,0,1018,38,0
15,0,0,0,0,520,508,0,1018,38,0
0,0,0,0,0,512,510,0,1018,38,0
1,0,0,0,0,496,508,0,1018,38,0
2,0,0,0,0,477,507,0,1018,39,0
3,0,0,0,0,486,506,0,1018,38,0
4,0,0,0,0,518,505,0,1018,38,0
5,0,0,0,0,534,508,0,1018,38,0
6,0,0,0,0,546,508,0,1018,38,0
7,0,0,0,0,546,510,0,1018,38,0
8,0,0,0,0,540,509,0,1018,38,0
9,0,0,0,0,521,510,0,1018,38,0
10,0,0,0,0,489,508,0,1018,39,0
11,0,0,0,0,484,508,0,1018,38,0
12,0,0,0,0,485,507,0,1018,38,0
13,0,0,0,0,484,508,0,491,38,0
14,0,0,0,0,525,508,0,0,38,0
15,0,0,0,0,564,506,0,0,38,0
0,0,0,0,0,569,505,0,0,38,0
1,0,0,0,0,517,505,0,0,38,0
2,0,0,0,0,480,506,0,0,39,0
3,0,0,0,0,444,509,0,0,38,0
4,0,0,0,0,444,509,0,0,38,0
5,0,0,0,0,487,507,0,0,38,0
6,0,0,0,0,505,507,0,0,38,0
7,0,0,0,0,519,508,0,0,38,0
8,0,0,0,0,516,507,0,0,38,0
9,0,0,0,0,513,507,0,0,38,0
10,0,0,0,0,502,506,0,0,39,0
11,0,0,0,0,486,505,0,0,38,0
12,0,0,0,0,490,505,0,0,38,0
13,0,0,0,0,500,505,0,0,38,0
14,0,0,0,0,507,508,0,0,38,0
15,0,0,0,0,536,508,0,0,38,0
0,0,0,0,0,543,507,0,75,38,0
1,0,0,0,0,544,508,0,0,38,0
2,0,0,0,0,561,510,0,0,38,0
3,0,0,0,0,549,508,0,0,38,0
4,0,0,0,0,525,505,0,0,38,0
5,0,0,0,0,510,507,0,0,38,0
6,0,0,0,0,502,507,0,0,38,0
7,0,0,0,0,473,508,0,0,38,0
8,0,0,0,0,465,507,0,0,38,0
9,0,0,0,0,485,508,0,0,38,0
10,0,0,0,0,495,506,0,0,39,0
11,0,0,0,0,493,505,0,0,38,0
12,0,0,0,0,507,505,0,0,38,0
13,0,0,0,0,542,505,0,0,38,0
14,0,0,0,0,582,505,0,0,38,0
15,0,0,0,0,580,505,0,517,38,0
0,0,0,0,0,543,505,0,877,38,0
1,0,0,0,0,484,505,0,1017,38,0
2,0,0,0,0,448,506,0,1018,39,0
3,0,0,0,0,439,507,0,1018,38,0
4,0,0,0,0,442,507,0,1018,38,0
5,0,0,0,0,487,508,0,1018,38,0
6,0,0,0,0,527,509,0,1018,38,0
7,0,0,0,0,516,508,0,1018,38,0
8,0,0,0,0,512,508,0,1018,38,0
9,0,0,0,0,510,508,0,1018,38,0
10,0,0,0,0,499,508,0,1018,38,0
11,0,0,0,0,510,508,0,1018,38,0
12,0,0,0,0,527,508,0,1018,38,0
13,0,0,0,0,533,508,0,1018,38,0
14,0,0,0,0,519,509,0,1018,38,0
15,0,0,0,0,521,509,0,1018,38,0
0,0,0,0,0,536,509,0,1018,38,0
1,0,0,0,0,516,510,0,1018,38,0
2,0,0,0,0,476,508,0,1018,39,0
3,0,0,0,0,464,508,0,1018,38,0
4,0,0,0,0,453,509,0,1018,38,0
5,0,0,0,0,481,510,0,1018,38,0
6,0,0,0,0,515,510,0,1018,38,0
7,0,0,0,0,542,511,0,1018,38,0
8,0,0,0,0,557,510,0,1018,38,0
9,0,0,0,0,552,508,0,1018,38,0
10,0,0,0,0,541,508,0,1018,39,0
11,0,0,0,0,530,509,0,1018,38,0
12,0,0,0,0,531,508,0,1018,38,0
13,0,0,0,0,515,508,0,1018,38,0
14,0,0,0,0,507,507,0,1018,38,0
15,0,0,0,0,502,507,0,1018,38,0
0,0,0,0,0,511,505,0,1018,38,0
1,0,0,0,0,511,504,0,1018,38,0
2,0,0,0,0,495,504,0,1018,39,0
3,0,0,0,0,501,506,0,1018,38,0
4,0,0,0,0,492,508,0,1018,38,0
5,0,0,0,0,479,508,0,1018,38,0
6,0,0,0,0,487,506,0,1018,38,0
7,0,0,0,0,510,505,0,1018,38,0
8,0,0,0,0,510,508,0,1018,38,0
9,0,0,0,0,507,507,0,1018,38,0
10,0,0,0,0,508,505,0,1018,38,0
11,0,0,0,0,520,505,0,1018,38,0
12,0,0,0,0,515,504,0,1018,38,0
13,0,0,0,0,508,507,0,1018,38,0
14,0,0,0,0,494,508,0,1018,38,0
15,0,0,0,0,484,508,0,1018,38,0
0,0,0,0,0,492,507,0,1018,38,0
1,0,0,0,0,498,508,0,1018,38,0
2,0,0,0,0,537,507,0,1018,39,0
3,0,0,0,0,555,509,0,1018,38,0
4,0,0,0,0,539,509,0,1018,38,0
5,0,0,0,0,525,508,0,1018,38,0
6,0,0,0,0,525,509,0,1018,38,0
7,0,0,0,0,517,510,0,1018,38,0
8,0,0,0,0,520,508,0,1018,38,0
9,0,0,0,0,538,508,0,1018,38,0
10,0,0,0,0,508,508,0,1018,39,0
11,0,0,0,0,471,508,0,1018,38,0
12,0,0,0,0,444,508,0,1018,38,0
13,0,0,0,0,470,507,0,1018,38,0
14,0,0,0,0,488,506,0,1018,38,0
15,0,0,0,0,500,505,0,1018,38,0
0,0,0,0,0,500,504,0,1018,38,0
1,0,0,0,0,510,506,0,1018,38,0
2,0,0,0,0,519,507,0,1018,38,0
3,0,0,0,0,528,508,0,1018,38,0
4,0,0,0,0,566,509,0,1018,38,0
5,0,0,0,0,540,509,0,1018,38,0
6,0,0,0,0,496,510,0,1018,38,0
7,0,0,0,0,475,511,0,1018,38,0
8,0,0,0,0,473,513,0,1018,38,0
9,0,0,0,0,496,512,0,1018,38,0
10,0,0,0,0,493,511,0,1018,39,0
11,0,0,0,0,517,512,0,1018,38,0
12,0,0,0,0,513,512,0,1018,38,0
13,0,0,0,0,493,511,0,1018,38,0
14,0,0,0,0,458,510,0,1018,38,0
15,0,0,0,0,474,510,0,1018,38,0
0,0,0,0,0,488,510,0,1018,38,0
1,0,0,0,0,515,510,0,1018,38,0
2,0,0,0,0,532,510,0,1018,38,0
3,0,0,0,0,541,509,0,1018,38,0
4,0,0,0,0,542,509,0,1018,38,0
5,0,0,0,0,544,510,0,1018,38,0
6,0,0,0,0,534,509,0,1018,38,0
7,0,0,0,0,533,509,0,1018,38,0
8,0,0,0,0,532,509,0,1018,38,0
9,0,0,0,0,513,509,0,1018,38,0
10,0,0,0,0,502,509,0,1018,38,0
11,0,0,0,0,502,508,0,1018,38,0
12,0,0,0,0,505,510,0,1018,38,0
13,0,0,0,0,497,509,0,1018,38,0
14,0,0,0,0,486,511,0,1018,38,0
15,0,0,0,0,497,510,0,1018,38,0
0,0,0,0,0,505,508,0,1018,38,0
1,0,0,0,0,521,505,0,1018,38,0
2,0,0,0,0,533,503,0,1018,39,0
3,0,0,0,0,538,505,0,1018,38,0
4,0,0,0,0,547,505,0,1018,38,0
5,0,0,0,0,545,505,0,1018,38,0
6,0,0,0,0,511,505,0,1018,38,0
7,0,0,0,0,487,507,0,1018,38,0
8,0,0,0,0,473,507,0,1018,38,0
9,0,0,0,0,460,507,0,1018,38,0
10,0,0,0,0,481,507,0,1018,39,0
11,0,0,0,0,511,508,0,1018,38,0
12,0,0,0,0,524,508,0,1018,38,0
13,0,0,0,0,527,507,0,1018,38,0
14,0,0,0,0,503,507,0,1018,38,0
15,0,0,0,0,505,508,0,1018,38,0
0,0,0,0,0,502,507,0,1018,38,0
1,0,0,0,0,514,508,0,1018,38,0
2,0,0,0,0,520,508,0,1018,38,0
3,0,0,0,0,517,508,0,1018,38,0
4,0,0,0,0,515,507,0,1018,38,0
5,0,0,0,0,523,506,0,1018,38,0
6,0,0,0,0,538,506,0,1018,38,0
7,0,0,0,0,529,506,0,1018,38,0
8,0,0,0,0,511,506,0,1018,38,0
9,0,0,0,0,499,507,0,1018,38,0
10,0,0,0,0,486,509,0,1018,38,0
11,0,0,0,0,464,507,0,1018,38,0
12,0,0,0,0,444,508,0,1018,38,0
13,0,0,0,0,454,508,0,1018,38,0
14,0,0,0,0,513,507,0,1018,38,0
15,0,0,0,0,536,509,0,1018,38,0
0,0,0,0,0,537,508,0,1018,38,0
1,0,0,0,0,526,508,0,1018,38,0
2,0,0,0,0,523,507,0,1018,38,0
3,0,0,0,0,519,507,0,1018,38,0
4,0,0,0,0,508,508,0,1018,38,0
5,0,0,0,0,501,507,0,1018,38,0
6,0,0,0,0,503,507,0,1018,38,0
7,0,0,0,0,512,506,0,1018,38,0
8,0,0,0,0,529,506,0,751,38,0
9,0,0,0,0,525,508,0,202,38,0
10,0,0,0,0,529,507,0,0,39,0
11,0,0,0,0,549,507,0,0,38,0
12,0,0,0,0,546,507,0,0,38,0
13,0,0,0,0,539,504,0,0,38,0
14,0,0,0,0,529,506,0,0,38,0
15,0,0,0,0,511,507,0,0,38,0
0,0,0,0,0,500,506,0,0,38,0
1,0,0,0,0,504,506,0,0,38,0
2,0,0,0,0,483,506,0,0,39,0
3,0,0,0,0,492,505,0,0,38,0
4,0,0,0,0,487,506,0,0,38,0
5,0,0,0,0,478,506,0,0,38,0
6,0,0,0,0,483,504,0,0,38,0
7,0,0,0,0,475,505,0,0,38,0
8,0,0,0,0,463,507,0,0,38,0
9,0,0,0,0,466,507,0,0,38,0
10,0,0,0,0,485,507,0,0,39,0
11,0,0,0,0,485,509,0,0,38,0
12,0,0,0,0,491,509,0,0,38,0
13,0,0,0,0,488,508,0,0,38,0
14,0,0,0,0,460,508,0,0,38,0
15,0,0,0,0,510,507,0,0,38,0
0,0,0,0,0,535,507,0,0,38,0
1,0,0,0,0,571,508,0,0,38,0
2,0,0,0,0,595,509,0,0,38,0
3,0,0,0,0,578,509,0,0,38,0
4,0,0,0,0,541,508,0,0,38,0
5,0,0,0,0,494,505,0,0,38,0
6,0,0,0,0,482,507,0,0,38,0
7,0,0,0,0,497,508,0,0,38,0
8,0,0,0,0,530,509,0,0,38,0
9,0,0,0,0,560,509,0,0,38,0
10,0,0,0,0,571,512,0,0,39,0
11,0,0,0,0,545,510,0,0,38,0
12,0,0,0,0,495,509,0,0,38,0
13,0,0,0,0,479,510,0,0,38,0
14,0,0,0,0,465,511,0,0,38,0
15,0,0,0,0,440,510,0,0,38,0
0,0,0,0,0,433,511,0,0,38,0
1,0,0,0,0,467,510,0,0,38,0
2,0,0,0,0,508,510,0,0,39,0
3,0,0,0,0,505,511,0,0,38,0
4,0,0,0,0,510,512,0,0,38,0
5,0,0,0,0,537,510,0,0,38,0
6,0,0,0,0,554,509,0,0,38,0
7,0,0,0,0,554,507,0,0,38,0
8,0,0,0,0,537,505,0,0,38,0
9,0,0,0,0,520,505,0,0,38,0
10,0,0,0,0,516,508,0,0,39,0
11,0,0,0,0,503,507,0,0,38,0
12,0,0,0,0,486,507,0,0,38,0
13,0,0,0,0,476,507,0,211,38,0
14,0,0,0,0,492,506,0,630,38,0
15,0,0,0,0,502,507,0,1018,38,0
0,0,0,0,0,525,508,0,1018,38,0
1,0,0,0,0,541,510,0,1018,38,0
2,0,0,0,0,539,508,0,1018,39,0
3,0,0,0,0,531,509,0,1018,38,0
4,0,0,0,0,517,510,0,1018,38,0
5,0,0,0,0,513,509,0,1018,38,0
6,0,0,0,0,517,508,0,1018,38,0
7,0,0,0,0,516,507,0,1018,38,0
8,0,0,0,0,527,505,0,1018,38,0
9,0,0,0,0,524,506,0,1018,38,0
10,0,0,0,0,504,507,0,1018,38,0
11,0,0,0,0,481,507,0,1018,38,0
12,0,0,0,0,475,508,0,1018,38,0
13,0,0,0,0,473,509,0,1018,38,0
14,0,0,0,0,471,509,0,1018,38,0
15,0,0,0,0,504,508,0,1018,38,0
0,0,0,0,0,509,507,0,1018,38,0
1,0,0,0,0,495,506,0,1018,38,0
2,0,0,0,0,492,505,0,1018,38,0
3,0,0,0,0,503,504,0,1018,38,0
4,0,0,0,0,516,507,0,1018,38,0
5,0,0,0,0,519,508,0,1018,38,0
6,0,0,0,0,522,505,0,1018,38,0
7,0,0,0,0,527,506,0,1018,38,0
8,0,0,0,0,534,506,0,1018,38,0
9,0,0,0,0,531,507,0,1018,38,0
10,0,0,0,0,522,508,0,1018,39,0
11,0,0,0,0,494,509,0,1018,38,0
12,0,0,0,0,542,510,0,1018,38,0
13,0,0,0,0,554,510,0,1018,38,0
14,0,0,0,0,526,509,0,1018,38,0
15,0,0,0,0,495,509,0,1018,38,0
0,0,0,0,0,466,509,0,1018,38,0
1,0,0,0,0,465,510,0,1018,38,0
2,0,0,0,0,457,510,0,1018,38,0
3,0,0,0,0,484,509,0,1018,38,0
4,0,0,0,0,470,508,0,1018,38,0
5,0,0,0,0,494,509,0,1018,38,0
6,0,0,0,0,532,511,0,1018,38,0
7,0,0,0,0,540,511,0,1018,38,0
8,0,0,0,0,512,510,0,1017,38,0
9,0,0,0,0,483,509,0,425,38,0
10,0,0,0,0,460,508,0,0,39,0
11,0,0,0,0,499,508,0,0,38,0
12,0,0,0,0,524,509,0,0,38,0
13,0,0,0,0,548,510,0,0,38,0
14,0,0,0,0,547,510,0,0,38,0
15,0,0,0,0,533,508,0,0,38,0
0,0,0,0,0,516,510,0,0,38,0
1,0,0,0,0,517,508,0,0,38,0
2,0,0,0,0,524,508,0,0,38,0
3,0,0,0,0,534,508,0,0,38,0
4,0,0,0,0,528,508,0,0,38,0
5,0,0,0,0,522,509,0,0,38,0
6,0,0,0,0,519,509,0,0,38,0
7,0,0,0,0,508,507,0,0,38,0
8,0,0,0,0,514,505,0,0,38,0
9,0,0,0,0,538,505,0,0,38,0
10,0,0,0,0,536,506,0,0,38,0
11,0,0,0,0,502,508,0,0,38,0
12,0,0,0,0,446,508,0,0,38,0
13,0,0,0,0,433,509,0,0,38,0
14,0,0,0,0,443,508,0,0,38,0
15,0,0,0,0,471,508,0,0,38,0
0,0,0,0,0,501,507,0,0,38,0
1,0,0,0,0,490,507,0,0,38,0
2,0,0,0,0,503,506,0,0,39,0
3,0,0,0,0,527,507,0,0,38,0
4,0,0,0,0,528,507,0,0,38,0
5,0,0,0,0,518,507,0,0,38,0
6,0,0,0,0,519,508,0,0,38,0
7,0,0,0,0,529,506,0,0,38,0
8,0,0,0,0,523,506,0,0,38,0
9,0,0,0,0,524,504,0,0,38,0
10,0,0,0,0,522,506,0,0,38,0
11,0,0,0,0,530,507,0,0,38,0
12,0,0,0,0,546,505,0,0,38,0
13,0,0,0,0,560,506,0,84,38,0
14,0,0,0,0,534,504,0,115,38,0
15,0,0,0,0,514,505,0,165,38,0
0,0,0,0,0,494,506,0,102,38,0
1,0,0,0,0,481,506,0,80,38,0
2,0,0,0,0,457,506,0,8,39,0
3,0,0,0,0,446,505,0,0,38,0
4,0,0,0,0,495,505,0,0,38,0
5,0,0,0,0,510,507,0,0,38,0
6,0,0,0,0,511,508,0,0,38,0
7,0,0,0,0,512,508,0,0,38,0
8,0,0,0,0,527,506,0,0,38,0
9,0,0,0,0,529,506,0,0,38,0
10,0,0,0,0,512,508,0,0,38,0
11,0,0,0,0,504,507,0,0,38,0
12,0,0,0,0,496,507,0,0,38,0
13,0,0,0,0,485,506,0,0,38,0
14,0,0,0,0,503,505,0,0,38,0
15,0,0,0,0,514,507,0,0,38,0
0,0,0,0,0,522,505,0,0,38,0
1,0,0,0,0,515,506,0,0,38,0
2,0,0,0,0,519,508,0,0,38,0
3,0,0,0,0,520,509,0,0,38,0
4,0,0,0,0,515,510,0,0,38,0
5,0,0,0,0,480,511,0,0,38,0
6,0,0,0,0,472,511,0,0,38,0
7,0,0,0,0,497,512,0,0,38,0
8,0,0,0,0,518,513,0,0,38,0
9,0,0,0,0,528,512,0,348,38,0
10,0,0,0,0,520,512,0,830,39,0
11,0,0,0,0,514,510,0,1018,38,0
12,0,0,0,0,516,510,0,1018,38,0
13,0,0,0,0,532,510,0,1018,38,0
14,0,0,0,0,542,508,0,1018,38,0
15,0,0,0,0,529,510,0,1018,38,0
0,0,0,0,0,511,509,0,1018,38,0
1,0,0,0,0,497,507,0,1018,38,0
2,0,0,0,0,494,505,0,1018,39,0
3,0,0,0,0,499,504,0,1018,38,0
4,0,0,0,0,505,505,0,1018,38,0
5,0,0,0,0,508,506,0,1018,38,0
6,0,0,0,0,504,504,0,1018,38,0
7,0,0,0,0,503,505,0,1018,38,0
8,0,0,0,0,494,506,0,1017,38,0
9,0,0,0,0,490,505,0,1018,38,0
10,0,0,0,0,477,505,0,617,39,0
11,0,0,0,0,471,505,0,269,38,0
12,0,0,0,0,462,506,0,0,38,0
13,0,0,0,0,494,507,0,0,38,0
14,0,0,0,0,538,507,0,0,38,0
15,0,0,0,0,571,507,0,0,38,0
0,0,0,0,0,569,509,0,0,38,0
1,0,0,0,0,536,508,0,0,38,0
2,0,0,0,0,502,507,0,0,38,0
3,0,0,0,0,485,506,0,0,38,0
4,0,0,0,0,496,507,0,0,38,0
5,0,0,0,0,497,507,0,0,38,0
6,0,0,0,0,504,505,0,0,38,0
7,0,0,0,0,533,504,0,0,38,0
8,0,0,0,0,551,504,0,0,38,0
9,0,0,0,0,553,504,0,0,38,0
10,0,0,0,0,546,505,0,0,39,0
11,0,0,0,0,533,506,0,0,38,0
12,0,0,0,0,521,508,0,0,38,0
13,0,0,0,0,509,509,0,0,38,0
14,0,0,0,0,483,508,0,0,38,0
15,0,0,0,0,476,509,0,0,38,0
0,0,0,0,0,511,508,0,0,38,0
1,0,0,0,0,508,509,0,0,38,0
2,0,0,0,0,464,510,0,0,39,0
3,0,0,0,0,477,509,0,0,38,0
4,0,0,0,0,503,509,0,0,38,0
5,0,0,0,0,474,508,0,0,38,0
6,0,0,0,0,426,509,0,0,38,0
7,0,0,0,0,457,510,0,0,38,0
8,0,0,0,0,480,509,0,0,38,0
9,0,0,0,0,489,508,0,0,38,0
10,0,0,0,0,505,507,0,0,39,0
11,0,0,0,0,525,508,0,0,38,0
12,0,0,0,0,534,507,0,0,38,0
13,0,0,0,0,541,508,0,0,38,0
14,0,0,0,0,546,509,0,0,38,0
15,0,0,0,0,534,509,0,0,38,0
0,0,0,0,0,512,510,0,0,38,0
1,0,0,0,0,509,508,0,0,38,0
2,0,0,0,0,499,508,0,0,38,0
3,0,0,0,0,511,510,0,0,38,0
4,0,0,0,0,526,509,0,0,38,0
5,0,0,0,0,547,510,0,0,38,0
6,0,0,0,0,574,509,0,0,38,0
7,0,0,0,0,637,507,0,0,38,0
8,0,0,0,0,647,505,0,0,38,0
9,0,0,0,0,578,505,0,0,38,0
10,0,0,0,0,495,507,0,0,38,0
11,0,0,0,0,413,506,0,0,38,0
12,0,0,0,0,359,504,0,0,38,0
13,0,0,0,0,349,504,0,0,38,0
14,0,0,0,0,355,505,0,590,38,0
15,0,0,0,0,432,506,0,1017,38,0
0,0,0,0,0,515,507,0,1018,38,0
1,0,0,0,0,561,507,0,1018,38,0
2,0,0,0,0,578,505,0,1018,39,0
3,0,0,0,0,566,508,0,1018,38,0
4,0,0,0,0,555,510,0,1018,38,0
5,0,0,0,0,550,509,0,1018,38,0
6,0,0,0,0,518,510,0,1018,38,0
7,0,0,0,0,509,510,0,1018,38,0
8,0,0,0,0,515,510,0,1018,38,0
9,0,0,0,0,511,510,0,1018,38,0
10,0,0,0,0,515,509,0,1018,39,0
11,0,0,0,0,511,509,0,1018,38,0
12,0,0,0,0,504,508,0,1018,38,0
13,0,0,0,0,500,508,0,1018,38,0
14,0,0,0,0,496,508,0,1018,38,0
15,0,0,0,0,503,507,0,1018,38,0
0,0,0,0,0,507,505,0,1018,38,0
1,0,0,0,0,511,506,0,1018,38,0
2,0,0,0,0,516,507,0,1018,38,0
3,0,0,0,0,522,508,0,1018,38,0
4,0,0,0,0,527,507,0,1018,38,0
5,0,0,0,0,532,508,0,1018,38,0
6,0,0,0,0,526,510,0,1018,38,0
7,0,0,0,0,508,508,0,1018,38,0
8,0,0,0,0,487,507,0,1018,38,0
9,0,0,0,0,475,509,0,1018,38,0
10,0,0,0,0,459,510,0,1018,39,0
11,0,0,0,0,484,508,0,1018,38,0
12,0,0,0,0,519,508,0,1018,38,0
13,0,0,0,0,546,508,0,1018,38,0
14,0,0,0,0,585,507,0,1018,38,0
15,0,0,0,0,576,507,0,1018,38,0
0,0,0,0,0,560,507,0,1018,38,0
1,0,0,0,0,540,507,0,1018,38,0
2,0,0,0,0,507,507,0,1018,38,0
3,0,0,0,0,455,508,0,1018,38,0
4,0,0,0,0,427,505,0,1018,38,0
5,0,0,0,0,425,505,0,1018,38,0
6,0,0,0,0,419,507,0,1018,38,0
7,0,0,0,0,471,505,0,1018,38,0
8,0,0,0,0,508,508,0,1018,38,0
9,0,0,0,0,510,509,0,1018,38,0
10,0,0,0,0,535,508,0,1018,38,0
11,0,0,0,0,564,508,0,1018,38,0
12,0,0,0,0,604,509,0,1018,38,0
13,0,0,0,0,605,509,0,1018,38,0
14,0,0,0,0,583,509,0,1018,38,0
15,0,0,0,0,535,510,0,1018,38,0
0,0,0,0,0,458,510,0,1018,38,0
1,0,0,0,0,406,510,0,1018,38,0
2,0,0,0,0,380,508,0,1018,39,0
3,0,0,0,0,412,506,0,1018,38,0
4,0,0,0,0,455,507,0,1018,38,0
5,0,0,0,0,511,507,0,1018,38,0
6,0,0,0,0,533,507,0,1018,38,0
7,0,0,0,0,559,506,0,1018,38,0
8,0,0,0,0,590,508,0,1018,38,0
9,0,0,0,0,569,510,0,1018,38,0
10,0,0,0,0,541,508,0,1018,38,0
11,0,0,0,0,517,509,0,1018,38,0
12,0,0,0,0,504,508,0,1018,38,0
13,0,0,0,0,479,509,0,1018,38,0
14,0,0,0,0,475,510,0,1018,38,0
15,0,0,0,0,472,510,0,1018,38,0
0,0,0,0,0,470,509,0,1018,38,0
1,0,0,0,0,481,509,0,1018,38,0
2,0,0,0,0,501,507,0,1018,38,0
3,0,0,0,0,513,508,0,1018,38,0
4,0,0,0,0,533,507,0,1018,38,0
5,0,0,0,0,519,507,0,1018,38,0
6,0,0,0,0,520,509,0,1018,38,0
7,0,0,0,0,536,509,0,1018,38,0
8,0,0,0,0,540,507,0,1018,38,0
9,0,0,0,0,542,508,0,1018,38,0
10,0,0,0,0,538,508,0,1018,38,0
11,0,0,0,0,531,508,0,1018,38,0
12,0,0,0,0,535,508,0,1018,38,0
13,0,0,0,0,528,509,0,1018,38,0
14,0,0,0,0,519,508,0,1018,38,0
15,0,0,0,0,498,509,0,1018,38,0
0,0,0,0,0,496,508,0,1018,38,0
1,0,0,0,0,512,509,0,1018,38,0
2,0,0,0,0,491,508,0,1018,38,0
3,0,0,0,0,488,507,0,1018,38,0
4,0,0,0,0,520,508,0,1018,38,0
5,0,0,0,0,520,508,0,1018,38,0
6,0,0,0,0,489,508,0,1018,38,0
7,0,0,0,0,481,508,0,1018,38,0
8,0,0,0,0,547,509,0,1018,38,0
9,0,0,0,0,548,508,0,1018,38,0
10,0,0,0,0,526,508,0,1018,39,0
11,0,0,0,0,496,508,0,1018,38,0
12,0,0,0,0,535,509,0,1018,38,0
13,0,0,0,0,529,509,0,1018,38,0
14,0,0,0,0,473,511,0,1017,38,0
15,0,0,0,0,442,511,0,1018,38,0
0,0,0,0,0,386,510,0,1018,38,0
1,0,0,0,0,387,510,0,1017,38,0
2,0,0,0,0,395,511,0,859,39,0
3,0,0,0,0,431,510,0,703,38,0
4,0,0,0,0,521,510,0,527,38,0
5,0,0,0,0,594,510,0,408,38,0
6,0,0,0,0,598,511,0,272,38,0
7,0,0,0,0,577,510,0,159,38,0
8,0,0,0,0,568,509,0,0,38,0
9,0,0,0,0,554,511,0,0,38,0
10,0,0,0,0,550,510,0,0,38,0
11,0,0,0,0,547,511,0,0,38,0
12,0,0,0,0,526,509,0,281,38,0
13,0,0,0,0,497,510,0,426,38,0
14,0,0,0,0,500,511,0,632,38,0
15,0,0,0,0,502,508,0,850,38,0
0,0,0,0,0,502,509,0,1016,38,0
1,0,0,0,0,498,508,0,1018,38,0
2,0,0,0,0,491,509,0,1017,38,0
3,0,0,0,0,483,509,0,1018,38,0
4,0,0,0,0,489,508,0,1018,38,0
5,0,0,0,0,492,509,0,1018,38,0
6,0,0,0,0,505,509,0,1018,38,0
7,0,0,0,0,536,508,0,1018,38,0
8,0,0,0,0,549,509,0,1018,38,0
9,0,0,0,0,537,508,0,1018,38,0
10,0,0,0,0,536,510,0,1018,38,0
11,0,0,0,0,536,513,0,1018,38,0
12,0,0,0,0,529,511,0,1018,38,0
13,0,0,0,0,512,510,0,1018,38,0
14,0,0,0,0,492,510,0,1018,38,0
15,0,0,0,0,482,510,0,1018,38,0
0,0,0,0,0,483,511,0,1018,38,0
1,0,0,0,0,489,511,0,1018,38,0
2,0,0,0,0,470,510,0,1018,39,0
3,0,0,0,0,480,509,0,1018,38,0
4,0,0,0,0,523,510,0,1018,38,0
5,0,0,0,0,527,509,0,1018,38,0
6,0,0,0,0,529,509,0,1018,38,0
7,0,0,0,0,528,507,0,1018,38,0
8,0,0,0,0,519,505,0,1018,38,0
9,0,0,0,0,507,506,0,1018,38,0
10,0,0,0,0,500,506,0,1018,39,0
11,0,0,0,0,507,507,0,1018,38,0
12,0,0,0,0,498,507,0,1018,38,0
13,0,0,0,0,484,506,0,1018,38,0
14,0,0,0,0,488,506,0,1018,38,0
15,0,0,0,0,496,507,0,1018,38,0
0,0,0,0,0,500,508,0,1018,38,0
1,0,0,0,0,506,508,0,1018,38,0
2,0,0,0,0,505,507,0,1018,39,0
3,0,0,0,0,525,508,0,1018,38,0
4,0,0,0,0,540,507,0,1018,38,0
5,0,0,0,0,542,508,0,1018,38,0
6,0,0,0,0,532,506,0,1018,38,0
7,0,0,0,0,520,506,0,1018,38,0
8,0,0,0,0,501,507,0,1018,38,0
9,0,0,0,0,475,508,0,1018,38,0
10,0,0,0,0,461,509,0,1018,38,0
11,0,0,0,0,487,508,0,1018,38,0
12,0,0,0,0,523,507,0,1018,38,0
13,0,0,0,0,521,505,0,1018,38,0
14,0,0,0,0,506,505,0,1018,38,0
15,0,0,0,0,503,504,0,1018,38,0
0,0,0,0,0,508,504,0,1018,38,0
1,0,0,0,0,512,504,0,819,38,0
2,0,0,0,0,515,505,0,393,39,0
3,0,0,0,0,518,507,0,28,38,0
4,0,0,0,0,529,505,0,0,38,0
5,0,0,0,0,539,505,0,0,38,0
6,0,0,0,0,533,505,0,0,38,0
7,0,0,0,0,535,505,0,0,38,0
8,0,0,0,0,540,505,0,0,38,0
9,0,0,0,0,560,508,0,0,38,0
10,0,0,0,0,557,511,0,0,39,0
11,0,0,0,0,531,509,0,0,38,0
12,0,0,0,0,493,508,0,0,38,0
13,0,0,0,0,430,508,0,0,38,0
14,0,0,0,0,407,508,0,0,38,0
15,0,0,0,0,422,508,0,0,38,0
0,0,0,0,0,480,508,0,0,38,0
1,0,0,0,0,469,509,0,0,38,0
2,0,0,0,0,465,507,0,0,39,0
3,0,0,0,0,499,508,0,0,38,0
4,0,0,0,0,520,507,0,0,38,0
5,0,0,0,0,532,508,0,0,38,0
6,0,0,0,0,533,508,0,0,38,0
7,0,0,0,0,540,508,0,0,38,0
8,0,0,0,0,544,509,0,0,38,0
9,0,0,0,0,538,509,0,0,38,0
10,0,0,0,0,540,511,0,0,39,0
11,0,0,0,0,535,509,0,0,38,0
12,0,0,0,0,510,508,0,0,38,0
13,0,0,0,0,490,510,0,0,38,0
14,0,0,0,0,504,510,0,0,38,0
15,0,0,0,0,514,508,0,0,38,0
0,0,0,0,0,521,508,0,0,38,0
1,0,0,0,0,535,509,0,0,38,0
2,0,0,0,0,533,509,0,0,38,0
3,0,0,0,0,527,510,0,0,38,0
4,0,0,0,0,511,507,0,0,38,0
5,0,0,0,0,504,508,0,0,38,0
6,0,0,0,0,501,509,0,0,38,0
7,0,0,0,0,480,509,0,0,38,0
8,0,0,0,0,467,508,0,0,38,0
9,0,0,0,0,449,507,0,0,38,0
10,0,0,0,0,476,508,0,0,38,0
11,0,0,0,0,476,508,0,0,38,0
12,0,0,0,0,487,509,0,0,38,0
13,0,0,0,0,523,509,0,0,38,0
14,0,0,0,0,547,509,0,0,38,0
15,0,0,0,0,550,508,0,0,38,0
0,0,0,0,0,534,507,0,0,38,0
1,0,0,0,0,518,507,0,0,38,0
2,0,0,0,0,523,506,0,0,39,0
3,0,0,0,0,522,508,0,0,38,0
4,0,0,0,0,520,507,0,0,38,0
5,0,0,0,0,541,506,0,0,38,0
6,0,0,0,0,544,507,0,0,38,0
7,0,0,0,0,539,507,0,0,38,0
8,0,0,0,0,528,507,0,0,38,0
9,0,0,0,0,536,507,0,0,38,0
10,0,0,0,0,520,507,0,0,38,0
11,0,0,0,0,509,508,0,0,38,0
12,0,0,0,0,540,508,0,0,38,0
13,0,0,0,0,479,506,0,0,38,0
14,0,0,0,0,403,505,0,0,38,0
15,0,0,0,0,377,505,0,0,38,0
0,0,0,0,0,363,506,0,0,38,0
1,0,0,0,0,435,507,0,0,38,0
2,0,0,0,0,507,506,0,0,38,0
3,0,0,0,0,547,507,0,0,38,0
4,0,0,0,0,573,507,0,0,38,0
5,0,0,0,0,577,507,0,0,38,0
6,0,0,0,0,535,507,0,0,38,0
7,0,0,0,0,499,508,0,0,38,0
8,0,0,0,0,481,505,0,0,38,0
9,0,0,0,0,489,505,0,0,38,0
10,0,0,0,0,504,507,0,0,38,0
11,0,0,0,0,529,507,0,0,38,0
12,0,0,0,0,550,507,0,0,38,0
13,0,0,0,0,572,507,0,0,38,0
14,0,0,0,0,572,504,0,0,38,0
15,0,0,0,0,560,503,0,0,38,0
0,0,0,0,0,540,503,0,0,38,0
1,0,0,0,0,511,504,0,0,38,0
2,0,0,0,0,484,507,0,0,38,0
3,0,0,0,0,469,507,0,0,38,0
4,0,0,0,0,436,507,0,0,38,0
5,0,0,0,0,452,507,0,0,38,0
6,0,0,0,0,480,504,0,0,38,0
7,0,0,0,0,527,505,0,0,38,0
8,0,0,0,0,556,504,0,0,38,0
9,0,0,0,0,557,504,0,0,38,0
10,0,0,0,0,534,505,0,0,39,0
11,0,0,0,0,517,505,0,0,38,0
12,0,0,0,0,507,505,0,0,38,0
13,0,0,0,0,507,505,0,0,38,0
14,0,0,0,0,489,508,0,0,38,0
15,0,0,0,0,507,507,0,0,38,0
0,0,0,0,0,524,506,0,0,38,0
1,0,0,0,0,505,508,0,0,38,0
2,0,0,0,0,489,507,0,0,39,0
3,0,0,0,0,489,508,0,0,38,0
4,0,0,0,0,493,509,0,0,38,0
5,0,0,0,0,483,508,0,0,38,0
6,0,0,0,0,488,508,0,0,38,0
7,0,0,0,0,486,508,0,0,38,0
8,0,0,0,0,519,507,0,0,38,0
9,0,0,0,0,538,506,0,0,38,0
10,0,0,0,0,527,507,0,0,38,0
11,0,0,0,0,531,505,0,0,38,0
12,0,0,0,0,526,505,0,0,38,0
13,0,0,0,0,518,506,0,0,38,0
14,0,0,0,0,497,504,0,0,38,0
15,0,0,0,0,487,504,0,0,38,0
0,0,0,0,0,513,505,0,0,38,0
1,0,0,0,0,516,506,0,0,38,0
2,0,0,0,0,519,505,0,0,38,0
3,0,0,0,0,518,509,0,0,38,0
4,0,0,0,0,504,510,0,0,38,0
5,0,0,0,0,502,509,0,0,38,0
6,0,0,0,0,500,507,0,0,38,0
7,0,0,0,0,484,507,0,0,38,0
8,0,0,0,0,524,507,0,0,38,0
9,0,0,0,0,557,505,0,0,38,0
10,0,0,0,0,527,507,0,0,38,0
11,0,0,0,0,504,507,0,0,38,0
12,0,0,0,0,484,509,0,0,38,0
13,0,0,0,0,459,510,0,0,38,0
14,0,0,0,0,446,511,0,0,38,0
15,0,0,0,0,473,509,0,0,38,0
0,0,0,0,0,472,511,0,0,38,0
1,0,0,0,0,502,511,0,0,38,0
2,0,0,0,0,542,510,0,0,39,0
3,0,0,0,0,572,509,0,0,38,0
4,0,0,0,0,572,510,0,0,38,0
5,0,0,0,0,561,508,0,0,38,0
6,0,0,0,0,543,507,0,0,38,0
7,0,0,0,0,527,507,0,0,38,0
8,0,0,0,0,499,506,0,0,38,0
9,0,0,0,0,471,506,0,0,38,0
10,0,0,0,0,463,507,0,0,38,0
11,0,0,0,0,461,507,0,0,38,0
12,0,0,0,0,475,508,0,0,38,0
13,0,0,0,0,494,507,0,0,38,0
14,0,0,0,0,515,508,0,0,38,0
15,0,0,0,0,531,509,0,0,38,0
0,0,0,0,0,527,507,0,0,38,0
1,0,0,0,0,513,508,0,0,38,0
2,0,0,0,0,487,506,0,0,39,0
3,0,0,0,0,505,506,0,0,38,0
4,0,0,0,0,517,508,0,0,38,0
5,0,0,0,0,516,509,0,0,38,0
6,0,0,0,0,525,507,0,0,38,0
7,0,0,0,0,524,507,0,0,38,0
8,0,0,0,0,497,507,0,0,38,0
9,0,0,0,0,526,507,0,0,38,0
10,0,0,0,0,535,509,0,0,38,0
11,0,0,0,0,531,508,0,0,38,0
12,0,0,0,0,531,507,0,0,38,0
13,0,0,0,0,526,507,0,0,38,0
14,0,0,0,0,510,507,0,0,38,0
15,0,0,0,0,501,508,0,0,38,0
0,0,0,0,0,522,508,0,0,38,0
1,0,0,0,0,522,506,0,0,38,0
2,0,0,0,0,493,506,0,0,38,0
3,0,0,0,0,489,506,0,0,38,0
4,0,0,0,0,490,506,0,0,38,0
5,0,0,0,0,484,505,0,0,38,0
6,0,0,0,0,487,505,0,0,38,0
7,0,0,0,0,498,507,0,0,38,0
8,0,0,0,0,481,506,0,0,38,0
9,0,0,0,0,478,507,0,0,38,0
10,0,0,0,0,500,506,0,0,38,0
11,0,0,0,0,524,505,0,0,38,0
12,0,0,0,0,535,506,0,0,38,0
13,0,0,0,0,553,507,0,0,38,0
14,0,0,0,0,502,507,0,0,38,0
15,0,0,0,0,518,507,0,0,38,0
0,0,0,0,0,515,508,0,0,38,0
1,0,0,0,0,500,508,0,0,38,0
2,0,0,0,0,487,507,0,0,38,0
3,0,0,0,0,463,508,0,0,38,0
4,0,0,0,0,462,508,0,0,38,0
5,0,0,0,0,489,509,0,0,38,0
6,0,0,0,0,551,510,0,0,38,0
7,0,0,0,0,564,510,0,0,38,0
8,0,0,0,0,541,511,0,0,38,0
9,0,0,0,0,513,509,0,0,38,0
10,0,0,0,0,501,508,0,0,39,0
11,0,0,0,0,493,508,0,0,38,0
12,0,0,0,0,476,508,0,210,38,0
13,0,0,0,0,477,507,0,801,38,0
14,0,0,0,0,527,507,0,1018,38,0
15,0,0,0,0,539,508,0,1018,38,0
0,0,0,0,0,527,508,0,1018,38,0
1,0,0,0,0,526,509,0,1018,38,0
2,0,0,0,0,531,508,0,1018,38,0
3,0,0,0,0,543,507,0,1018,38,0
4,0,0,0,0,572,505,0,1018,38,0
5,0,0,0,0,556,507,0,1018,38,0
6,0,0,0,0,515,508,0,1018,38,0
7,0,0,0,0,462,508,0,1018,38,0
8,0,0,0,0,440,507,0,1018,38,0
9,0,0,0,0,417,507,0,1018,38,0
10,0,0,0,0,419,507,0,1018,39,0
11,0,0,0,0,427,505,0,1018,38,0
12,0,0,0,0,493,506,0,1018,38,0
13,0,0,0,0,558,505,0,1018,38,0
14,0,0,0,0,582,504,0,1018,38,0
15,0,0,0,0,563,505,0,1018,38,0
0,0,0,0,0,542,506,0,1018,38,0
1,0,0,0,0,531,508,0,1018,38,0
2,0,0,0,0,536,508,0,1018,39,0
3,0,0,0,0,545,509,0,1018,38,0
4,0,0,0,0,539,510,0,1018,38,0
5,0,0,0,0,522,510,0,1018,38,0
6,0,0,0,0,510,511,0,1018,38,0
7,0,0,0,0,499,509,0,1018,38,0
8,0,0,0,0,494,509,0,1018,38,0
9,0,0,0,0,456,510,0,1018,38,0
10,0,0,0,0,461,510,0,1018,38,0
11,0,0,0,0,464,509,0,1018,38,0
12,0,0,0,0,497,508,0,1018,38,0
13,0,0,0,0,514,508,0,1018,38,0
14,0,0,0,0,515,508,0,1018,38,0
15,0,0,0,0,525,508,0,1018,38,0
0,0,0,0,0,532,509,0,1018,38,0
1,0,0,0,0,540,508,0,1018,38,0
2,0,0,0,0,531,508,0,1018,39,0
3,0,0,0,0,527,508,0,1018,38,0
4,0,0,0,0,515,509,0,1018,38,0
5,0,0,0,0,516,508,0,1018,38,0
6,0,0,0,0,512,509,0,1018,38,0
7,0,0,0,0,504,509,0,1018,38,0
8,0,0,0,0,480,508,0,1018,38,0
9,0,0,0,0,503,508,0,1018,38,0
10,0,0,0,0,512,509,0,1018,38,0
11,0,0,0,0,519,506,0,1018,38,0
12,0,0,0,0,512,507,0,1017,38,0
13,0,0,0,0,506,506,0,472,38,0
14,0,0,0,0,494,505,0,13,38,0
15,0,0,0,0,480,506,0,0,38,0
0,0,0,0,0,465,508,0,0,38,0
1,0,0,0,0,478,507,0,0,38,0
2,0,0,0,0,487,506,0,0,38,0
3,0,0,0,0,471,507,0,0,38,0
4,0,0,0,0,474,508,0,0,38,0
5,0,0,0,0,489,508,0,0,38,0
6,0,0,0,0,518,508,0,0,38,0
7,0,0,0,0,539,506,0,0,38,0
8,0,0,0,0,555,508,0,0,38,0
9,0,0,0,0,558,509,0,0,38,0
10,0,0,0,0,551,510,0,0,39,0
11,0,0,0,0,542,507,0,0,38,0
12,0,0,0,0,534,506,0,0,38,0
13,0,0,0,0,544,505,0,0,38,0
14,0,0,0,0,553,507,0,0,38,0
15,0,0,0,0,552,508,0,0,38,0
0,0,0,0,0,540,509,0,0,38,0
1,0,0,0,0,524,509,0,0,38,0
2,0,0,0,0,488,510,0,0,38,0
3,0,0,0,0,445,509,0,0,38,0
4,0,0,0,0,397,509,0,0,38,0
5,0,0,0,0,410,507,0,0,38,0
6,0,0,0,0,425,507,0,0,38,0
7,0,0,0,0,494,508,0,0,38,0
8,0,0,0,0,529,509,0,0,38,0
9,0,0,0,0,539,508,0,0,38,0
10,0,0,0,0,533,510,0,269,39,0
11,0,0,0,0,541,508,0,823,38,0
12,0,0,0,0,543,508,0,1018,38,0
13,0,0,0,0,524,509,0,1018,38,0
14,0,0,0,0,521,508,0,1018,38,0
15,0,0,0,0,536,507,0,1018,38,0
0,0,0,0,0,537,508,0,1018,38,0
1,0,0,0,0,525,508,0,1018,38,0
2,0,0,0,0,522,509,0,1018,38,0
