timestamp,0,1,2,3,4,5,6,7,8,9
3,0,0,0,0,491,509,0,1018,38,0
4,0,0,0,0,489,509,0,1018,38,0
5,0,0,0,0,499,509,0,1018,38,0
6,0,0,0,0,491,508,0,1018,38,0
7,0,0,0,0,482,508,0,1018,38,0
8,0,0,0,0,480,507,0,1018,38,0
9,0,0,0,0,474,508,0,1018,38,0
10,0,0,0,0,496,507,0,1018,39,0
11,0,0,0,0,530,507,0,1018,38,0
12,0,0,0,0,531,506,0,1018,38,0
13,0,0,0,0,539,507,0,1018,38,0
14,0,0,0,0,558,505,0,1018,38,0
15,0,0,0,0,548,507,0,1018,38,0
0,0,0,0,0,526,507,0,1018,38,0
1,0,0,0,0,485,508,0,1018,38,0
2,0,0,0,0,488,508,0,1018,39,0
3,0,0,0,0,512,507,0,1018,38,0
4,0,0,0,0,531,508,0,1018,38,0
5,0,0,0,0,524,507,0,1018,38,0
6,0,0,0,0,508,508,0,1018,38,0
7,0,0,0,0,507,508,0,1018,38,0
8,0,0,0,0,487,508,0,1018,38,0
9,0,0,0,0,425,508,0,1018,38,0
10,0,0,0,0,440,506,0,1018,39,0
11,0,0,0,0,470,506,0,1018,38,0
12,0,0,0,0,510,507,0,1018,38,0
13,0,0,0,0,546,508,0,1018,38,0
14,0,0,0,0,573,507,0,1018,38,0
15,0,0,0,0,576,506,0,1018,38,0
0,0,0,0,0,555,507,0,1018,38,0
1,0,0,0,0,507,507,0,1018,38,0
2,0,0,0,0,465,507,0,1018,39,0
3,0,0,0,0,447,504,0,1018,38,0
4,0,0,0,0,434,506,0,1018,38,0
5,0,0,0,0,462,507,0,1018,38,0
6,0,0,0,0,513,508,0,1018,38,0
7,0,0,0,0,566,507,0,1018,38,0
8,0,0,0,0,576,508,0,1018,38,0
9,0,0,0,0,544,507,0,1018,38,0
10,0,0,0,0,526,508,0,1018,38,0
11,0,0,0,0,522,508,0,1018,38,0
12,0,0,0,0,498,509,0,1018,38,0
13,0,0,0,0,490,509,0,1018,38,0
14,0,0,0,0,507,509,0,1018,38,0
15,0,0,0,0,529,508,0,1017,38,0
0,0,0,0,0,535,508,0,1018,38,0
1,0,0,0,0,524,508,0,1018,38,0
2,0,0,0,0,506,508,0,1017,38,0
3,0,0,0,0,485,508,0,1018,38,0
4,0,0,0,0,479,507,0,1018,38,0
5,0,0,0,0,476,508,0,1018,38,0
6,0,0,0,0,476,508,0,1018,38,0
7,0,0,0,0,486,507,0,1018,38,0
8,0,0,0,0,503,508,0,1018,38,0
9,0,0,0,0,511,508,0,1018,38,0
10,0,0,0,0,530,509,0,1018,39,0
11,0,0,0,0,559,508,0,1018,38,0
12,0,0,0,0,548,508,0,1018,38,0
13,0,0,0,0,532,507,0,1018,38,0
14,0,0,0,0,521,508,0,1018,38,0
15,0,0,0,0,501,509,0,1018,38,0
0,0,0,0,0,487,510,0,1018,38,0
1,0,0,0,0,515,511,0,1018,38,0
2,0,0,0,0,556,512,0,1018,38,0
3,0,0,0,0,551,510,0,1018,38,0
4,0,0,0,0,521,510,0,1018,38,0
5,0,0,0,0,469,509,0,1018,38,0
6,0,0,0,0,423,509,0,1018,38,0
7,0,0,0,0,429,508,0,1018,38,0
8,0,0,0,0,453,507,0,1018,38,0
9,0,0,0,0,455,508,0,1018,38,0
10,0,0,0,0,488,507,0,1018,39,0
11,0,0,0,0,509,507,0,1018,38,0
12,0,0,0,0,543,509,0,1018,38,0
13,0,0,0,0,549,509,0,1018,38,0
14,0,0,0,0,564,510,0,1018,38,0
15,0,0,0,0,566,510,0,1018,38,0
0,0,0,0,0,583,510,0,1018,38,0
1,0,0,0,0,570,510,0,1018,38,0
2,0,0,0,0,533,508,0,1018,38,0
3,0,0,0,0,497,508,0,1018,38,0
4,0,0,0,0,430,507,0,1018,38,0
5,0,0,0,0,442,510,0,1018,38,0
6,0,0,0,0,466,509,0,1018,38,0
7,0,0,0,0,492,508,0,1018,38,0
8,0,0,0,0,505,508,0,1018,38,0
9,0,0,0,0,532,508,0,1018,38,0
10,0,0,0,0,536,509,0,1018,38,0
11,0,0,0,0,521,509,0,1018,38,0
12,0,0,0,0,517,511,0,1018,38,0
13,0,0,0,0,532,510,0,1018,38,0
14,0,0,0,0,521,509,0,1018,38,0
15,0,0,0,0,499,508,0,1018,38,0
0,0,0,0,0,496,510,0,1018,38,0
1,0,0,0,0,489,508,0,1018,38,0
2,0,0,0,0,478,508,0,1018,38,0
3,0,0,0,0,459,508,0,1018,38,0
4,0,0,0,0,489,509,0,1018,38,0
5,0,0,0,0,508,510,0,1018,38,0
6,0,0,0,0,523,510,0,1018,38,0
7,0,0,0,0,529,508,0,1018,38,0
8,0,0,0,0,521,506,0,1018,38,0
9,0,0,0,0,520,508,0,637,38,0
10,0,0,0,0,524,509,0,0,39,0
11,0,0,0,0,524,509,0,0,38,0
12,0,0,0,0,537,509,0,0,38,0
13,0,0,0,0,550,508,0,0,38,0
14,0,0,0,0,534,509,0,0,38,0
15,0,0,0,0,520,508,0,0,38,0
0,0,0,0,0,517,509,0,0,38,0
1,0,0,0,0,514,510,0,0,38,0
2,0,0,0,0,511,508,0,0,39,0
3,0,0,0,0,503,509,0,0,38,0
4,0,0,0,0,499,510,0,0,38,0
5,0,0,0,0,480,510,0,0,38,0
6,0,0,0,0,464,510,0,0,38,0
7,0,0,0,0,459,510,0,0,38,0
8,0,0,0,0,461,508,0,0,38,0
9,0,0,0,0,480,511,0,0,38,0
10,0,0,0,0,483,512,0,0,38,0
11,0,0,0,0,501,511,0,0,38,0
12,0,0,0,0,513,511,0,0,38,0
13,0,0,0,0,524,509,0,0,38,0
14,0,0,0,0,521,509,0,0,38,0
15,0,0,0,0,502,508,0,0,38,0
0,0,0,0,0,508,507,0,0,38,0
1,0,0,0,0,531,506,0,0,38,0
2,0,0,0,0,545,508,0,0,39,0
3,0,0,0,0,543,508,0,0,38,0
4,0,0,0,0,538,508,0,0,38,0
5,0,0,0,0,552,509,0,0,38,0
6,0,0,0,0,571,508,0,0,38,0
7,0,0,0,0,560,508,0,0,38,0
8,0,0,0,0,520,505,0,0,38,0
9,0,0,0,0,493,504,0,0,38,0
10,0,0,0,0,455,504,0,0,39,0
11,0,0,0,0,423,504,0,0,38,0
12,0,0,0,0,466,505,0,0,38,0
13,0,0,0,0,465,505,0,0,38,0
14,0,0,0,0,498,506,0,0,38,0
15,0,0,0,0,535,507,0,0,38,0
0,0,0,0,0,554,508,0,0,38,0
1,0,0,0,0,546,507,0,0,38,0
2,0,0,0,0,544,508,0,0,38,0
3,0,0,0,0,523,509,0,0,38,0
4,0,0,0,0,511,508,0,0,38,0
5,0,0,0,0,486,506,0,0,38,0
6,0,0,0,0,484,506,0,0,38,0
7,0,0,0,0,500,505,0,0,38,0
8,0,0,0,0,500,504,0,0,38,0
9,0,0,0,0,512,505,0,0,38,0
10,0,0,0,0,510,505,0,0,39,0
11,0,0,0,0,504,503,0,0,38,0
12,0,0,0,0,488,505,0,0,38,0
13,0,0,0,0,490,506,0,0,38,0
14,0,0,0,0,509,506,0,0,38,0
15,0,0,0,0,543,506,0,0,38,0
0,0,0,0,0,540,506,0,0,38,0
1,0,0,0,0,521,507,0,0,38,0
2,0,0,0,0,524,505,0,0,38,0
3,0,0,0,0,511,507,0,0,38,0
4,0,0,0,0,498,506,0,0,38,0
5,0,0,0,0,494,507,0,0,38,0
6,0,0,0,0,461,506,0,0,38,0
7,0,0,0,0,433,507,0,0,38,0
8,0,0,0,0,472,508,0,0,38,0
9,0,0,0,0,549,505,0,0,38,0
10,0,0,0,0,575,506,0,0,39,0
11,0,0,0,0,564,505,0,0,38,0
12,0,0,0,0,523,506,0,0,38,0
13,0,0,0,0,500,505,0,0,38,0
14,0,0,0,0,501,505,0,0,38,0
15,0,0,0,0,491,504,0,0,38,0
0,0,0,0,0,505,504,0,0,38,0
1,0,0,0,0,501,505,0,0,38,0
2,0,0,0,0,490,505,0,0,39,0
3,0,0,0,0,476,504,0,0,38,0
4,0,0,0,0,484,505,0,0,38,0
5,0,0,0,0,478,506,0,0,38,0
6,0,0,0,0,476,508,0,0,38,0
7,0,0,0,0,475,508,0,0,38,0
8,0,0,0,0,492,509,0,0,38,0
9,0,0,0,0,523,509,0,0,38,0
10,0,0,0,0,543,507,0,0,38,0
11,0,0,0,0,555,507,0,0,38,0
12,0,0,0,0,560,509,0,0,38,0
13,0,0,0,0,543,509,0,0,38,0
14,0,0,0,0,527,508,0,0,38,0
15,0,0,0,0,520,509,0,0,38,0
0,0,0,0,0,510,507,0,0,38,0
1,0,0,0,0,499,507,0,0,38,0
2,0,0,0,0,509,507,0,0,39,0
3,0,0,0,0,511,507,0,0,38,0
4,0,0,0,0,515,507,0,0,38,0
5,0,0,0,0,500,508,0,0,38,0
6,0,0,0,0,494,507,0,0,38,0
7,0,0,0,0,504,505,0,33,38,0
8,0,0,0,0,531,506,0,63,38,0
9,0,0,0,0,544,507,0,250,38,0
10,0,0,0,0,549,506,0,350,38,0
11,0,0,0,0,545,506,0,454,38,0
12,0,0,0,0,534,507,0,584,38,0
13,0,0,0,0,528,508,0,652,38,0
14,0,0,0,0,496,509,0,801,38,0
15,0,0,0,0,416,508,0,960,38,0
0,0,0,0,0,421,508,0,1018,38,0
1,0,0,0,0,419,508,0,1018,38,0
2,0,0,0,0,445,509,0,1017,38,0
3,0,0,0,0,487,509,0,1018,38,0
4,0,0,0,0,521,511,0,1018,38,0
5,0,0,0,0,519,510,0,1018,38,0
6,0,0,0,0,531,508,0,1018,38,0
7,0,0,0,0,545,508,0,1018,38,0
8,0,0,0,0,547,507,0,1018,38,0
9,0,0,0,0,545,508,0,1018,38,0
10,0,0,0,0,537,508,0,1018,38,0
11,0,0,0,0,525,507,0,1018,38,0
12,0,0,0,0,548,507,0,1017,38,0
13,0,0,0,0,538,507,0,726,38,0
14,0,0,0,0,503,508,0,141,38,0
15,0,0,0,0,494,508,0,0,38,0
0,0,0,0,0,495,507,0,0,38,0
1,0,0,0,0,514,506,0,0,38,0
2,0,0,0,0,523,508,0,0,39,0
3,0,0,0,0,527,509,0,0,38,0
4,0,0,0,0,520,509,0,0,38,0
5,0,0,0,0,518,508,0,0,38,0
6,0,0,0,0,500,509,0,0,38,0
7,0,0,0,0,473,507,0,0,38,0
8,0,0,0,0,449,506,0,0,38,0
9,0,0,0,0,466,507,0,0,38,0
10,0,0,0,0,474,507,0,0,39,0
11,0,0,0,0,491,508,0,0,38,0
12,0,0,0,0,499,505,0,0,38,0
13,0,0,0,0,520,506,0,0,38,0
14,0,0,0,0,553,504,0,0,38,0
15,0,0,0,0,565,506,0,0,38,0
0,0,0,0,0,551,508,0,0,38,0
1,0,0,0,0,519,510,0,0,38,0
2,0,0,0,0,486,509,0,0,38,0
3,0,0,0,0,475,509,0,0,38,0
4,0,0,0,0,477,507,0,217,38,0
5,0,0,0,0,504,507,0,772,38,0
6,0,0,0,0,526,508,0,1018,38,0
7,0,0,0,0,516,510,0,1018,38,0
8,0,0,0,0,491,509,0,1018,38,0
9,0,0,0,0,509,508,0,1018,38,0
10,0,0,0,0,535,510,0,1018,38,0
11,0,0,0,0,536,509,0,1018,38,0
12,0,0,0,0,526,510,0,1018,38,0
13,0,0,0,0,527,511,0,1018,39,0
14,0,0,0,0,523,511,0,1018,38,0
15,0,0,0,0,518,510,0,1018,38,0
0,0,0,0,0,510,508,0,1018,38,0
1,0,0,0,0,495,508,0,1018,38,0
2,0,0,0,0,478,507,0,1018,39,0
3,0,0,0,0,443,505,0,1018,38,0
4,0,0,0,0,451,507,0,1018,38,0
5,0,0,0,0,473,506,0,1018,38,0
6,0,0,0,0,517,506,0,1018,38,0
7,0,0,0,0,527,507,0,1018,38,0
8,0,0,0,0,541,509,0,1018,38,0
9,0,0,0,0,535,510,0,1018,38,0
10,0,0,0,0,520,508,0,1018,39,0
11,0,0,0,0,516,510,0,1018,38,0
12,0,0,0,0,507,509,0,1018,38,0
13,0,0,0,0,496,510,0,1017,38,0
14,0,0,0,0,487,509,0,627,38,0
15,0,0,0,0,500,508,0,159,38,0
0,0,0,0,0,504,507,0,0,38,0
1,0,0,0,0,542,506,0,0,38,0
2,0,0,0,0,578,505,0,0,39,0
3,0,0,0,0,584,504,0,0,38,0
4,0,0,0,0,583,505,0,0,38,0
5,0,0,0,0,564,505,0,0,38,0
6,0,0,0,0,511,506,0,0,38,0
7,0,0,0,0,471,507,0,0,38,0
8,0,0,0,0,458,505,0,0,38,0
9,0,0,0,0,399,507,0,0,38,0
10,0,0,0,0,427,507,0,0,38,0
11,0,0,0,0,474,507,0,0,38,0
12,0,0,0,0,481,509,0,0,38,0
13,0,0,0,0,504,510,0,0,38,0
14,0,0,0,0,513,510,0,0,38,0
15,0,0,0,0,514,509,0,0,38,0
0,0,0,0,0,516,508,0,0,38,0
1,0,0,0,0,523,506,0,0,38,0
2,0,0,0,0,541,507,0,0,39,0
3,0,0,0,0,558,505,0,0,38,0
4,0,0,0,0,543,506,0,0,38,0
5,0,0,0,0,527,506,0,0,38,0
6,0,0,0,0,507,507,0,0,38,0
7,0,0,0,0,480,509,0,0,38,0
8,0,0,0,0,456,508,0,0,38,0
9,0,0,0,0,457,508,0,0,38,0
10,0,0,0,0,501,507,0,0,39,0
11,0,0,0,0,523,507,0,0,38,0
12,0,0,0,0,532,509,0,0,38,0
13,0,0,0,0,534,509,0,0,38,0
14,0,0,0,0,520,508,0,0,38,0
15,0,0,0,0,531,509,0,0,38,0
0,0,0,0,0,550,510,0,0,38,0
1,0,0,0,0,561,508,0,0,38,0
2,0,0,0,0,543,509,0,0,38,0
3,0,0,0,0,502,509,0,0,38,0
4,0,0,0,0,486,508,0,0,38,0
5,0,0,0,0,468,507,0,0,38,0
6,0,0,0,0,452,507,0,0,38,0
7,0,0,0,0,433,509,0,0,38,0
8,0,0,0,0,456,508,0,0,38,0
9,0,0,0,0,500,507,0,0,38,0
10,0,0,0,0,518,508,0,0,39,0
11,0,0,0,0,515,509,0,0,38,0
12,0,0,0,0,507,510,0,0,38,0
13,0,0,0,0,508,510,0,0,38,0
14,0,0,0,0,508,509,0,0,38,0
15,0,0,0,0,504,509,0,0,38,0
0,0,0,0,0,530,509,0,0,38,0
1,0,0,0,0,544,509,0,0,38,0
2,0,0,0,0,547,508,0,0,38,0
3,0,0,0,0,526,507,0,0,38,0
4,0,0,0,0,503,509,0,0,38,0
5,0,0,0,0,519,511,0,0,38,0
6,0,0,0,0,540,510,0,0,38,0
7,0,0,0,0,544,511,0,0,38,0
8,0,0,0,0,520,510,0,0,38,0
9,0,0,0,0,495,510,0,0,38,0
10,0,0,0,0,496,510,0,0,38,0
11,0,0,0,0,504,508,0,569,38,0
12,0,0,0,0,524,509,0,1016,38,0
13,0,0,0,0,506,510,0,1018,38,0
14,0,0,0,0,476,510,0,1018,38,0
15,0,0,0,0,479,511,0,1018,38,0
0,0,0,0,0,482,511,0,1017,38,0
1,0,0,0,0,483,510,0,926,38,0
2,0,0,0,0,479,508,0,830,39,0
3,0,0,0,0,496,508,0,751,38,0
4,0,0,0,0,525,507,0,704,38,0
5,0,0,0,0,539,506,0,616,38,0
6,0,0,0,0,539,507,0,514,38,0
7,0,0,0,0,520,507,0,511,38,0
8,0,0,0,0,538,507,0,510,38,0
9,0,0,0,0,552,507,0,567,38,0
10,0,0,0,0,527,507,0,743,38,0
11,0,0,0,0,522,507,0,843,38,0
12,0,0,0,0,545,508,0,977,38,0
13,0,0,0,0,525,509,0,1018,38,0
14,0,0,0,0,492,510,0,1018,38,0
15,0,0,0,0,467,510,0,1018,38,0
0,0,0,0,0,438,511,0,1018,38,0
1,0,0,0,0,420,510,0,1018,38,0
2,0,0,0,0,450,511,0,1018,39,0
3,0,0,0,0,489,512,0,1018,38,0
4,0,0,0,0,499,512,0,1018,38,0
5,0,0,0,0,513,511,0,1018,38,0
6,0,0,0,0,531,510,0,1018,38,0
7,0,0,0,0,531,510,0,1018,38,0
8,0,0,0,0,536,509,0,1018,38,0
9,0,0,0,0,543,509,0,1018,38,0
10,0,0,0,0,558,508,0,1018,38,0
11,0,0,0,0,559,506,0,1018,38,0
12,0,0,0,0,547,506,0,1018,38,0
13,0,0,0,0,553,507,0,1018,38,0
14,0,0,0,0,560,507,0,1018,38,0
15,0,0,0,0,541,509,0,1018,38,0
0,0,0,0,0,532,508,0,1018,38,0
1,0,0,0,0,505,507,0,1018,38,0
2,0,0,0,0,481,508,0,1018,39,0
3,0,0,0,0,454,506,0,1018,38,0
4,0,0,0,0,423,508,0,1018,38,0
5,0,0,0,0,432,508,0,1018,38,0
6,0,0,0,0,424,507,0,1018,38,0
7,0,0,0,0,455,509,0,1018,38,0
8,0,0,0,0,491,509,0,1018,38,0
9,0,0,0,0,520,509,0,1018,38,0
10,0,0,0,0,538,508,0,1018,39,0
11,0,0,0,0,539,507,0,1018,38,0
12,0,0,0,0,520,508,0,1018,38,0
13,0,0,0,0,513,508,0,1018,38,0
14,0,0,0,0,515,507,0,1018,38,0
15,0,0,0,0,538,506,0,1018,38,0
0,0,0,0,0,546,505,0,1018,38,0
1,0,0,0,0,531,506,0,1018,38,0
2,0,0,0,0,509,505,0,1018,39,0
3,0,0,0,0,485,505,0,1018,38,0
4,0,0,0,0,497,506,0,1018,38,0
5,0,0,0,0,507,506,0,1018,38,0
6,0,0,0,0,519,506,0,1018,38,0
7,0,0,0,0,545,506,0,1018,38,0
8,0,0,0,0,552,506,0,1018,38,0
9,0,0,0,0,536,505,0,1018,38,0
10,0,0,0,0,508,505,0,1018,38,0
11,0,0,0,0,502,506,0,1018,38,0
12,0,0,0,0,513,507,0,1018,38,0
13,0,0,0,0,494,508,0,1018,38,0
14,0,0,0,0,484,508,0,1018,38,0
15,0,0,0,0,493,508,0,1018,38,0
0,0,0,0,0,493,508,0,1018,38,0
1,0,0,0,0,506,509,0,1018,38,0
2,0,0,0,0,515,511,0,1018,39,0
3,0,0,0,0,510,511,0,1018,38,0
4,0,0,0,0,504,510,0,1018,38,0
5,0,0,0,0,527,510,0,1018,38,0
6,0,0,0,0,527,510,0,1018,38,0
7,0,0,0,0,527,510,0,1018,38,0
8,0,0,0,0,494,511,0,1018,38,0
9,0,0,0,0,468,509,0,1018,38,0
10,0,0,0,0,446,510,0,1018,39,0
11,0,0,0,0,468,511,0,1017,38,0
12,0,0,0,0,489,511,0,1018,38,0
13,0,0,0,0,504,510,0,1018,38,0
14,0,0,0,0,536,511,0,1018,38,0
15,0,0,0,0,524,508,0,1018,38,0
0,0,0,0,0,502,507,0,1018,38,0
1,0,0,0,0,510,505,0,1018,38,0
2,0,0,0,0,518,506,0,1018,39,0
3,0,0,0,0,513,506,0,1018,38,0
4,0,0,0,0,537,505,0,1018,38,0
5,0,0,0,0,529,505,0,1018,38,0
6,0,0,0,0,516,505,0,1018,38,0
7,0,0,0,0,520,504,0,1018,38,0
8,0,0,0,0,527,504,0,1018,38,0
9,0,0,0,0,524,504,0,1018,38,0
10,0,0,0,0,516,506,0,1018,38,0
11,0,0,0,0,511,505,0,565,38,0
12,0,0,0,0,503,505,0,77,38,0
13,0,0,0,0,482,505,0,0,38,0
14,0,0,0,0,467,504,0,0,38,0
15,0,0,0,0,479,503,0,0,38,0
0,0,0,0,0,497,502,0,0,38,0
1,0,0,0,0,514,501,0,0,38,0
2,0,0,0,0,533,502,0,0,38,0
3,0,0,0,0,553,503,0,0,38,0
4,0,0,0,0,536,504,0,0,38,0
5,0,0,0,0,499,506,0,0,38,0
6,0,0,0,0,504,505,0,0,38,0
7,0,0,0,0,502,504,0,0,38,0
8,0,0,0,0,504,506,0,123,38,0
9,0,0,0,0,506,506,0,199,38,0
10,0,0,0,0,500,507,0,203,38,0
11,0,0,0,0,503,508,0,147,38,0
12,0,0,0,0,533,508,0,47,38,0
13,0,0,0,0,543,508,0,0,38,0
14,0,0,0,0,536,506,0,0,38,0
15,0,0,0,0,520,506,0,0,38,0
0,0,0,0,0,515,508,0,0,38,0
1,0,0,0,0,507,507,0,0,38,0
2,0,0,0,0,495,508,0,0,38,0
3,0,0,0,0,457,508,0,0,38,0
4,0,0,0,0,461,509,0,0,38,0
5,0,0,0,0,462,510,0,0,38,0
6,0,0,0,0,467,508,0,0,38,0
7,0,0,0,0,514,509,0,0,38,0
8,0,0,0,0,547,509,0,208,38,0
9,0,0,0,0,584,510,0,572,38,0
10,0,0,0,0,591,509,0,918,39,0
11,0,0,0,0,560,507,0,1018,38,0
12,0,0,0,0,541,507,0,1018,38,0
13,0,0,0,0,496,507,0,1018,38,0
14,0,0,0,0,464,509,0,1017,38,0
15,0,0,0,0,402,508,0,1018,38,0
0,0,0,0,0,426,508,0,1018,38,0
1,0,0,0,0,462,508,0,1017,38,0
2,0,0,0,0,519,509,0,1018,39,0
3,0,0,0,0,547,509,0,1018,38,0
4,0,0,0,0,547,510,0,1018,38,0
5,0,0,0,0,525,510,0,1018,38,0
6,0,0,0,0,499,507,0,1018,38,0
7,0,0,0,0,504,507,0,1018,38,0
8,0,0,0,0,507,508,0,707,38,0
9,0,0,0,0,505,506,0,352,38,0
10,0,0,0,0,508,505,0,118,38,0
11,0,0,0,0,535,504,0,2,38,0
12,0,0,0,0,553,505,0,0,38,0
13,0,0,0,0,558,505,0,0,38,0
14,0,0,0,0,536,505,0,0,38,0
15,0,0,0,0,511,505,0,0,38,0
0,0,0,0,0,489,506,0,0,38,0
1,0,0,0,0,474,506,0,0,38,0
2,0,0,0,0,468,507,0,0,38,0
3,0,0,0,0,470,507,0,0,38,0
4,0,0,0,0,487,508,0,0,38,0
5,0,0,0,0,500,508,0,0,38,0
6,0,0,0,0,514,508,0,0,38,0
7,0,0,0,0,551,506,0,0,38,0
8,0,0,0,0,549,505,0,0,38,0
9,0,0,0,0,527,504,0,0,38,0
10,0,0,0,0,522,505,0,0,38,0
11,0,0,0,0,515,504,0,0,38,0
12,0,0,0,0,526,505,0,0,38,0
13,0,0,0,0,511,504,0,0,38,0
14,0,0,0,0,487,506,0,0,38,0
15,0,0,0,0,472,506,0,0,38,0
0,0,0,0,0,466,505,0,0,38,0
1,0,0,0,0,475,506,0,0,38,0
2,0,0,0,0,499,507,0,0,39,0
3,0,0,0,0,493,509,0,0,38,0
4,0,0,0,0,496,508,0,0,38,0
5,0,0,0,0,506,508,0,187,38,0
6,0,0,0,0,499,509,0,718,38,0
7,0,0,0,0,521,509,0,1018,38,0
8,0,0,0,0,555,509,0,1018,38,0
9,0,0,0,0,567,510,0,1018,38,0
10,0,0,0,0,557,508,0,1018,39,0
11,0,0,0,0,528,507,0,1017,38,0
12,0,0,0,0,512,506,0,1018,38,0
13,0,0,0,0,503,507,0,1018,38,0
14,0,0,0,0,501,508,0,1018,38,0
15,0,0,0,0,524,507,0,1018,38,0
0,0,0,0,0,533,507,0,1018,38,0
1,0,0,0,0,515,508,0,1018,38,0
2,0,0,0,0,498,506,0,1018,39,0
3,0,0,0,0,493,508,0,1018,38,0
4,0,0,0,0,485,508,0,1018,38,0
5,0,0,0,0,472,507,0,1018,38,0
6,0,0,0,0,472,506,0,1018,38,0
7,0,0,0,0,481,505,0,1018,38,0
8,0,0,0,0,486,503,0,1018,38,0
9,0,0,0,0,486,503,0,1018,38,0
10,0,0,0,0,500,506,0,1017,38,0
11,0,0,0,0,524,505,0,678,38,0
12,0,0,0,0,551,505,0,443,38,0
13,0,0,0,0,544,507,0,141,38,0
14,0,0,0,0,499,508,0,0,38,0
15,0,0,0,0,497,508,0,0,38,0
0,0,0,0,0,502,507,0,0,38,0
1,0,0,0,0,510,506,0,0,38,0
2,0,0,0,0,499,507,0,0,38,0
3,0,0,0,0,504,508,0,0,38,0
4,0,0,0,0,536,509,0,0,38,0
5,0,0,0,0,548,509,0,0,38,0
6,0,0,0,0,534,508,0,0,38,0
7,0,0,0,0,494,508,0,0,38,0
8,0,0,0,0,479,508,0,0,38,0
9,0,0,0,0,492,510,0,0,38,0
10,0,0,0,0,501,509,0,0,39,0
11,0,0,0,0,504,509,0,0,38,0
12,0,0,0,0,508,509,0,0,38,0
13,0,0,0,0,507,509,0,0,38,0
14,0,0,0,0,500,510,0,0,38,0
15,0,0,0,0,512,508,0,0,38,0
0,0,0,0,0,533,509,0,0,38,0
1,0,0,0,0,534,509,0,0,38,0
2,0,0,0,0,533,509,0,0,39,0
3,0,0,0,0,534,509,0,0,38,0
4,0,0,0,0,517,508,0,0,38,0
5,0,0,0,0,497,507,0,0,38,0
6,0,0,0,0,480,507,0,0,38,0
7,0,0,0,0,497,507,0,0,38,0
8,0,0,0,0,504,506,0,0,38,0
9,0,0,0,0,515,505,0,0,38,0
10,0,0,0,0,523,506,0,0,39,0
11,0,0,0,0,502,507,0,0,38,0
12,0,0,0,0,492,506,0,0,38,0
13,0,0,0,0,498,506,0,0,38,0
14,0,0,0,0,507,506,0,0,38,0
15,0,0,0,0,520,505,0,0,38,0
0,0,0,0,0,523,505,0,0,38,0
1,0,0,0,0,533,505,0,0,38,0
2,0,0,0,0,529,507,0,0,38,0
3,0,0,0,0,509,509,0,0,38,0
4,0,0,0,0,489,508,0,0,38,0
5,0,0,0,0,483,507,0,0,38,0
6,0,0,0,0,472,507,0,0,38,0
7,0,0,0,0,472,507,0,0,38,0
8,0,0,0,0,484,508,0,0,38,0
9,0,0,0,0,503,507,0,414,38,0
10,0,0,0,0,518,509,0,647,38,0
11,0,0,0,0,542,510,0,743,38,0
12,0,0,0,0,550,510,0,721,38,0
13,0,0,0,0,519,509,0,631,38,0
14,0,0,0,0,508,507,0,497,38,0
15,0,0,0,0,515,507,0,300,38,0
0,0,0,0,0,529,505,0,0,38,0
1,0,0,0,0,526,504,0,0,38,0
2,0,0,0,0,521,504,0,0,39,0
3,0,0,0,0,519,506,0,0,38,0
4,0,0,0,0,513,508,0,0,38,0
5,0,0,0,0,506,507,0,0,38,0
6,0,0,0,0,506,507,0,0,38,0
7,0,0,0,0,504,507,0,0,38,0
8,0,0,0,0,474,507,0,0,38,0
9,0,0,0,0,475,507,0,0,38,0
10,0,0,0,0,508,507,0,0,38,0
11,0,0,0,0,503,506,0,0,38,0
12,0,0,0,0,501,506,0,0,38,0
13,0,0,0,0,521,508,0,0,38,0
14,0,0,0,0,527,509,0,0,38,0
15,0,0,0,0,503,508,0,144,38,0
0,0,0,0,0,516,508,0,239,38,0
1,0,0,0,0,504,508,0,436,38,0
2,0,0,0,0,499,508,0,578,39,0
3,0,0,0,0,513,509,0,625,38,0
4,0,0,0,0,521,509,0,697,38,0
5,0,0,0,0,510,508,0,806,38,0
6,0,0,0,0,461,508,0,893,38,0
7,0,0,0,0,468,508,0,1017,38,0
8,0,0,0,0,471,508,0,1018,38,0
9,0,0,0,0,497,510,0,1018,38,0
10,0,0,0,0,512,508,0,1018,38,0
11,0,0,0,0,510,508,0,1018,38,0
12,0,0,0,0,533,508,0,1018,38,0
13,0,0,0,0,550,508,0,1018,38,0
14,0,0,0,0,560,506,0,1018,38,0
15,0,0,0,0,542,506,0,1018,38,0
0,0,0,0,0,547,506,0,1018,38,0
1,0,0,0,0,563,506,0,1018,38,0
2,0,0,0,0,523,507,0,1018,38,0
3,0,0,0,0,485,507,0,1018,38,0
4,0,0,0,0,465,506,0,1018,38,0
5,0,0,0,0,437,507,0,1018,38,0
6,0,0,0,0,442,508,0,1018,38,0
7,0,0,0,0,468,509,0,1018,38,0
8,0,0,0,0,460,509,0,1018,38,0
9,0,0,0,0,496,509,0,1018,38,0
10,0,0,0,0,518,509,0,1018,39,0
11,0,0,0,0,538,510,0,1018,38,0
12,0,0,0,0,545,507,0,1018,38,0
13,0,0,0,0,551,505,0,1018,38,0
14,0,0,0,0,536,508,0,1018,38,0
15,0,0,0,0,518,509,0,1018,38,0
0,0,0,0,0,500,511,0,1018,38,0
1,0,0,0,0,498,511,0,1018,38,0
2,0,0,0,0,514,510,0,1018,38,0
3,0,0,0,0,516,510,0,1018,38,0
4,0,0,0,0,518,508,0,1018,38,0
5,0,0,0,0,528,509,0,1018,38,0
6,0,0,0,0,547,508,0,1018,38,0
7,0,0,0,0,548,508,0,1018,38,0
8,0,0,0,0,531,507,0,1018,38,0
9,0,0,0,0,504,506,0,1018,38,0
10,0,0,0,0,511,505,0,1018,39,0
11,0,0,0,0,504,506,0,1018,38,0
12,0,0,0,0,486,508,0,1018,38,0
13,0,0,0,0,510,508,0,1018,38,0
14,0,0,0,0,559,508,0,1018,38,0
15,0,0,0,0,579,507,0,1018,38,0
0,0,0,0,0,546,508,0,1018,38,0
1,0,0,0,0,478,508,0,1018,38,0
2,0,0,0,0,434,508,0,1018,38,0
3,0,0,0,0,403,508,0,1018,38,0
4,0,0,0,0,379,508,0,1018,38,0
5,0,0,0,0,423,508,0,1018,38,0
6,0,0,0,0,480,506,0,1018,38,0
7,0,0,0,0,515,508,0,1018,38,0
8,0,0,0,0,534,508,0,1018,38,0
9,0,0,0,0,551,508,0,1018,38,0
10,0,0,0,0,560,508,0,1018,39,0
11,0,0,0,0,564,508,0,1018,38,0
12,0,0,0,0,574,509,0,1017,38,0
13,0,0,0,0,587,509,0,1017,38,0
14,0,0,0,0,586,508,0,619,38,0
15,0,0,0,0,566,509,0,230,38,0
0,0,0,0,0,508,508,0,0,38,0
1,0,0,0,0,448,507,0,0,38,0
2,0,0,0,0,392,506,0,0,39,0
3,0,0,0,0,408,506,0,0,38,0
4,0,0,0,0,450,505,0,0,38,0
5,0,0,0,0,497,505,0,0,38,0
6,0,0,0,0,534,506,0,0,38,0
7,0,0,0,0,544,506,0,0,38,0
8,0,0,0,0,545,504,0,0,38,0
9,0,0,0,0,533,504,0,0,38,0
10,0,0,0,0,528,506,0,0,38,0
11,0,0,0,0,518,507,0,0,38,0
12,0,0,0,0,503,507,0,0,38,0
13,0,0,0,0,513,509,0,0,38,0
14,0,0,0,0,489,508,0,0,38,0
15,0,0,0,0,467,508,0,0,38,0
0,0,0,0,0,479,509,0,0,38,0
1,0,0,0,0,484,509,0,0,38,0
2,0,0,0,0,499,509,0,0,39,0
3,0,0,0,0,518,508,0,0,38,0
4,0,0,0,0,527,508,0,0,38,0
5,0,0,0,0,531,506,0,0,38,0
6,0,0,0,0,533,505,0,0,38,0
7,0,0,0,0,529,505,0,0,38,0
8,0,0,0,0,522,504,0,0,38,0
9,0,0,0,0,519,505,0,0,38,0
10,0,0,0,0,517,508,0,0,38,0
11,0,0,0,0,537,506,0,0,38,0
12,0,0,0,0,526,507,0,0,38,0
13,0,0,0,0,504,506,0,0,38,0
14,0,0,0,0,495,505,0,0,38,0
15,0,0,0,0,493,507,0,0,38,0
0,0,0,0,0,448,508,0,0,38,0
1,0,0,0,0,466,508,0,0,38,0
2,0,0,0,0,514,509,0,0,38,0
3,0,0,0,0,529,508,0,0,38,0
4,0,0,0,0,518,509,0,0,38,0
5,0,0,0,0,517,508,0,0,38,0
6,0,0,0,0,505,509,0,0,38,0
7,0,0,0,0,496,511,0,0,38,0
8,0,0,0,0,503,509,0,0,38,0
9,0,0,0,0,500,510,0,0,38,0
10,0,0,0,0,514,510,0,0,38,0
11,0,0,0,0,526,509,0,0,38,0
12,0,0,0,0,524,510,0,0,38,0
13,0,0,0,0,539,510,0,0,38,0
14,0,0,0,0,548,510,0,0,38,0
15,0,0,0,0,546,509,0,0,38,0
0,0,0,0,0,515,508,0,0,38,0
1,0,0,0,0,484,510,0,0,38,0
2,0,0,0,0,481,509,0,0,39,0
3,0,0,0,0,465,508,0,0,38,0
4,0,0,0,0,461,507,0,0,38,0
5,0,0,0,0,480,505,0,0,38,0
6,0,0,0,0,519,507,0,0,38,0
7,0,0,0,0,539,506,0,0,38,0
8,0,0,0,0,544,505,0,0,38,0
9,0,0,0,0,550,507,0,0,38,0
10,0,0,0,0,545,507,0,0,38,0
11,0,0,0,0,523,507,0,0,38,0
12,0,0,0,0,499,507,0,0,38,0
13,0,0,0,0,494,508,0,0,38,0
14,0,0,0,0,482,508,0,0,38,0
15,0,0,0,0,477,508,0,67,38,0
0,0,0,0,0,482,508,0,52,38,0
1,0,0,0,0,500,509,0,55,38,0
2,0,0,0,0,489,509,0,207,39,0
3,0,0,0,0,487,509,0,353,38,0
4,0,0,0,0,511,510,0,526,38,0
5,0,0,0,0,524,512,0,675,38,0
6,0,0,0,0,510,511,0,889,38,0
7,0,0,0,0,479,510,0,970,38,0
8,0,0,0,0,506,509,0,1018,38,0
9,0,0,0,0,547,509,0,1017,38,0
10,0,0,0,0,543,510,0,1018,39,0
11,0,0,0,0,535,510,0,1018,38,0
12,0,0,0,0,518,512,0,1017,38,0
13,0,0,0,0,528,510,0,1018,38,0
14,0,0,0,0,517,510,0,1018,38,0
15,0,0,0,0,505,510,0,1018,38,0
0,0,0,0,0,506,510,0,1018,38,0
1,0,0,0,0,514,511,0,1018,38,0
2,0,0,0,0,533,508,0,1018,39,0
3,0,0,0,0,548,509,0,1018,38,0
4,0,0,0,0,519,508,0,1018,38,0
5,0,0,0,0,510,508,0,1018,38,0
6,0,0,0,0,498,508,0,1018,38,0
7,0,0,0,0,494,508,0,1018,38,0
8,0,0,0,0,461,506,0,1018,38,0
9,0,0,0,0,469,507,0,1018,38,0
10,0,0,0,0,465,508,0,1018,39,0
11,0,0,0,0,489,508,0,1018,38,0
12,0,0,0,0,499,511,0,1018,38,0
13,0,0,0,0,515,511,0,1018,38,0
14,0,0,0,0,510,510,0,1018,38,0
15,0,0,0,0,514,510,0,1018,38,0
0,0,0,0,0,504,510,0,1018,38,0
1,0,0,0,0,501,510,0,1018,38,0
2,0,0,0,0,509,508,0,1018,38,0
3,0,0,0,0,525,507,0,1017,38,0
4,0,0,0,0,532,505,0,1018,38,0
5,0,0,0,0,539,507,0,1017,38,0
6,0,0,0,0,528,509,0,1018,38,0
7,0,0,0,0,501,508,0,1018,38,0
8,0,0,0,0,479,506,0,1018,38,0
9,0,0,0,0,467,507,0,1018,38,0
10,0,0,0,0,446,506,0,1018,38,0
11,0,0,0,0,491,507,0,1018,38,0
12,0,0,0,0,526,507,0,1018,38,0
13,0,0,0,0,547,508,0,1018,38,0
14,0,0,0,0,543,508,0,1018,38,0
15,0,0,0,0,527,507,0,914,38,0
0,0,0,0,0,521,506,0,796,38,0
1,0,0,0,0,531,505,0,702,38,0
2,0,0,0,0,564,508,0,643,39,0
3,0,0,0,0,584,510,0,639,38,0
4,0,0,0,0,558,511,0,668,38,0
5,0,0,0,0,511,508,0,742,38,0
6,0,0,0,0,460,509,0,686,38,0
7,0,0,0,0,444,508,0,508,38,0
8,0,0,0,0,441,508,0,224,38,0
9,0,0,0,0,442,508,0,1,38,0
10,0,0,0,0,459,507,0,0,39,0
11,0,0,0,0,483,506,0,0,38,0
12,0,0,0,0,510,507,0,0,38,0
13,0,0,0,0,540,506,0,0,38,0
14,0,0,0,0,543,504,0,0,38,0
15,0,0,0,0,545,505,0,0,38,0
0,0,0,0,0,547,504,0,0,38,0
1,0,0,0,0,540,504,0,0,38,0
2,0,0,0,0,528,504,0,0,39,0
3,0,0,0,0,500,504,0,0,38,0
4,0,0,0,0,475,505,0,0,38,0
5,0,0,0,0,469,506,0,0,38,0
6,0,0,0,0,481,505,0,0,38,0
7,0,0,0,0,514,505,0,0,38,0
8,0,0,0,0,541,505,0,0,38,0
9,0,0,0,0,541,507,0,0,38,0
10,0,0,0,0,528,510,0,0,39,0
11,0,0,0,0,511,510,0,0,38,0
12,0,0,0,0,505,512,0,0,38,0
13,0,0,0,0,510,513,0,0,38,0
14,0,0,0,0,508,511,0,0,38,0
15,0,0,0,0,487,512,0,0,38,0
0,0,0,0,0,489,512,0,0,38,0
1,0,0,0,0,508,511,0,0,38,0
2,0,0,0,0,501,511,0,0,38,0
3,0,0,0,0,524,511,0,0,38,0
4,0,0,0,0,523,510,0,0,38,0
5,0,0,0,0,531,511,0,0,38,0
6,0,0,0,0,536,511,0,0,38,0
7,0,0,0,0,523,510,0,0,38,0
8,0,0,0,0,495,508,0,0,38,0
9,0,0,0,0,495,507,0,0,38,0
10,0,0,0,0,466,507,0,0,39,0
11,0,0,0,0,455,507,0,0,38,0
12,0,0,0,0,475,509,0,0,38,0
13,0,0,0,0,480,508,0,332,38,0
14,0,0,0,0,503,507,0,755,38,0
15,0,0,0,0,528,509,0,1017,38,0
0,0,0,0,0,543,508,0,1018,38,0
1,0,0,0,0,583,508,0,1018,38,0
2,0,0,0,0,574,508,0,1018,39,0
3,0,0,0,0,552,508,0,1018,38,0
4,0,0,0,0,528,509,0,1018,38,0
5,0,0,0,0,504,508,0,1017,38,0
6,0,0,0,0,479,508,0,681,38,0
7,0,0,0,0,445,508,0,666,38,0
8,0,0,0,0,427,506,0,776,38,0
9,0,0,0,0,440,508,0,910,38,0
10,0,0,0,0,478,509,0,1000,39,0
11,0,0,0,0,515,509,0,892,38,0
12,0,0,0,0,544,507,0,699,38,0
13,0,0,0,0,541,507,0,407,38,0
14,0,0,0,0,533,509,0,101,38,0
15,0,0,0,0,511,508,0,0,38,0
0,0,0,0,0,490,505,0,0,38,0
1,0,0,0,0,487,505,0,0,38,0
2,0,0,0,0,508,507,0,0,39,0
3,0,0,0,0,507,508,0,0,38,0
4,0,0,0,0,525,508,0,0,38,0
5,0,0,0,0,530,506,0,0,38,0
6,0,0,0,0,521,505,0,0,38,0
7,0,0,0,0,509,506,0,0,38,0
8,0,0,0,0,518,504,0,0,38,0
9,0,0,0,0,534,506,0,0,38,0
10,0,0,0,0,547,507,0,0,38,0
11,0,0,0,0,550,508,0,0,38,0
12,0,0,0,0,547,507,0,0,38,0
13,0,0,0,0,547,509,0,0,38,0
14,0,0,0,0,519,508,0,0,38,0
15,0,0,0,0,486,506,0,0,38,0
0,0,0,0,0,495,506,0,0,38,0
1,0,0,0,0,485,506,0,0,38,0
2,0,0,0,0,467,507,0,0,38,0
3,0,0,0,0,483,508,0,0,38,0
4,0,0,0,0,512,507,0,0,38,0
5,0,0,0,0,529,508,0,0,38,0
6,0,0,0,0,517,509,0,0,38,0
7,0,0,0,0,498,510,0,0,38,0
8,0,0,0,0,476,509,0,0,38,0
9,0,0,0,0,456,510,0,0,38,0
10,0,0,0,0,453,511,0,0,39,0
11,0,0,0,0,440,511,0,0,38,0
12,0,0,0,0,452,512,0,0,38,0
13,0,0,0,0,509,513,0,0,38,0
14,0,0,0,0,541,512,0,0,38,0
15,0,0,0,0,548,511,0,0,38,0
0,0,0,0,0,537,509,0,0,38,0
1,0,0,0,0,526,509,0,0,38,0
2,0,0,0,0,529,507,0,0,38,0
3,0,0,0,0,523,506,0,0,38,0
4,0,0,0,0,524,505,0,0,38,0
5,0,0,0,0,529,505,0,0,38,0
6,0,0,0,0,530,507,0,0,38,0
7,0,0,0,0,525,508,0,0,38,0
8,0,0,0,0,537,508,0,0,38,0
9,0,0,0,0,518,507,0,0,38,0
10,0,0,0,0,508,507,0,0,39,0
11,0,0,0,0,498,507,0,0,38,0
12,0,0,0,0,494,505,0,0,38,0
13,0,0,0,0,498,508,0,0,38,0
14,0,0,0,0,497,507,0,0,38,0
15,0,0,0,0,486,508,0,0,38,0
0,0,0,0,0,492,507,0,0,38,0
1,0,0,0,0,505,508,0,0,38,0
2,0,0,0,0,518,506,0,0,38,0
3,0,0,0,0,516,506,0,0,38,0
4,0,0,0,0,507,507,0,0,38,0
5,0,0,0,0,510,507,0,0,38,0
6,0,0,0,0,513,508,0,0,38,0
7,0,0,0,0,523,508,0,0,38,0
8,0,0,0,0,534,508,0,0,38,0
9,0,0,0,0,539,507,0,0,38,0
10,0,0,0,0,502,508,0,0,38,0
11,0,0,0,0,468,509,0,0,38,0
12,0,0,0,0,497,508,0,0,38,0
13,0,0,0,0,513,507,0,0,38,0
14,0,0,0,0,512,508,0,0,38,0
15,0,0,0,0,518,508,0,0,38,0
0,0,0,0,0,526,508,0,0,38,0
1,0,0,0,0,520,509,0,0,38,0
2,0,0,0,0,527,508,0,0,39,0
3,0,0,0,0,528,507,0,363,38,0
4,0,0,0,0,507,509,0,708,38,0
5,0,0,0,0,503,508,0,1018,38,0
6,0,0,0,0,488,509,0,1017,38,0
7,0,0,0,0,456,509,0,1018,38,0
8,0,0,0,0,484,509,0,1018,38,0
9,0,0,0,0,484,508,0,1017,38,0
10,0,0,0,0,495,508,0,1018,39,0
11,0,0,0,0,511,508,0,1017,38,0
12,0,0,0,0,519,508,0,1018,38,0
13,0,0,0,0,516,509,0,1018,38,0
14,0,0,0,0,506,509,0,1018,38,0
15,0,0,0,0,492,508,0,1018,38,0
0,0,0,0,0,488,509,0,1018,38,0
1,0,0,0,0,500,509,0,1018,38,0
2,0,0,0,0,516,510,0,1018,39,0
3,0,0,0,0,543,510,0,1018,38,0
4,0,0,0,0,569,511,0,1018,38,0
5,0,0,0,0,583,510,0,1018,38,0
6,0,0,0,0,563,510,0,1018,38,0
7,0,0,0,0,538,510,0,1018,38,0
8,0,0,0,0,507,509,0,1018,38,0
9,0,0,0,0,487,510,0,1018,38,0
10,0,0,0,0,464,510,0,1018,38,0
11,0,0,0,0,454,511,0,1018,38,0
12,0,0,0,0,460,508,0,1018,38,0
13,0,0,0,0,458,508,0,1018,38,0
14,0,0,0,0,456,509,0,1018,38,0
15,0,0,0,0,468,510,0,1018,38,0
0,0,0,0,0,507,509,0,1018,38,0
1,0,0,0,0,518,509,0,1018,38,0
2,0,0,0,0,536,507,0,1018,39,0
3,0,0,0,0,548,507,0,1018,38,0
4,0,0,0,0,522,510,0,1018,38,0
5,0,0,0,0,509,510,0,1018,38,0
6,0,0,0,0,508,510,0,1018,38,0
7,0,0,0,0,495,509,0,1018,38,0
8,0,0,0,0,523,509,0,1018,38,0
9,0,0,0,0,555,511,0,1018,38,0
10,0,0,0,0,558,510,0,1018,39,0
11,0,0,0,0,531,508,0,1018,38,0
12,0,0,0,0,499,508,0,1018,38,0
13,0,0,0,0,492,509,0,1018,38,0
14,0,0,0,0,490,509,0,1018,38,0
15,0,0,0,0,470,508,0,1018,38,0
0,0,0,0,0,471,508,0,1018,38,0
1,0,0,0,0,523,508,0,1018,38,0
2,0,0,0,0,555,508,0,1018,39,0
3,0,0,0,0,540,507,0,1018,38,0
4,0,0,0,0,515,508,0,1018,38,0
5,0,0,0,0,497,509,0,1018,38,0
6,0,0,0,0,497,510,0,1018,38,0
7,0,0,0,0,510,510,0,1018,38,0
8,0,0,0,0,515,509,0,1018,38,0
9,0,0,0,0,504,508,0,1018,38,0
10,0,0,0,0,505,507,0,1018,39,0
11,0,0,0,0,516,506,0,1018,38,0
12,0,0,0,0,516,504,0,1018,38,0
13,0,0,0,0,516,505,0,1018,38,0
14,0,0,0,0,511,505,0,1018,38,0
15,0,0,0,0,504,503,0,1018,38,0
0,0,0,0,0,511,504,0,1018,38,0
1,0,0,0,0,514,505,0,1018,38,0
2,0,0,0,0,501,504,0,1018,38,0
3,0,0,0,0,516,505,0,1018,38,0
4,0,0,0,0,531,505,0,1018,38,0
5,0,0,0,0,545,507,0,1018,38,0
6,0,0,0,0,540,507,0,1018,38,0
7,0,0,0,0,518,505,0,1018,38,0
8,0,0,0,0,484,504,0,1018,38,0
9,0,0,0,0,475,504,0,1018,38,0
10,0,0,0,0,473,506,0,1018,38,0
11,0,0,0,0,472,505,0,1018,38,0
12,0,0,0,0,495,507,0,1017,38,0
13,0,0,0,0,507,505,0,1018,38,0
14,0,0,0,0,506,505,0,1018,38,0
15,0,0,0,0,515,507,0,1017,38,0
0,0,0,0,0,517,506,0,450,38,0
1,0,0,0,0,502,505,0,0,38,0
2,0,0,0,0,509,505,0,0,39,0
3,0,0,0,0,515,506,0,0,38,0
4,0,0,0,0,505,507,0,0,38,0
5,0,0,0,0,493,507,0,0,38,0
6,0,0,0,0,498,508,0,0,38,0
7,0,0,0,0,512,508,0,0,38,0
8,0,0,0,0,515,507,0,0,38,0
9,0,0,0,0,525,507,0,0,38,0
10,0,0,0,0,532,507,0,0,39,0
11,0,0,0,0,533,508,0,0,38,0
12,0,0,0,0,526,509,0,0,38,0
13,0,0,0,0,509,508,0,0,38,0
14,0,0,0,0,510,507,0,0,38,0
15,0,0,0,0,502,507,0,0,38,0
0,0,0,0,0,507,508,0,0,38,0
1,0,0,0,0,488,507,0,0,38,0
2,0,0,0,0,515,507,0,0,39,0
3,0,0,0,0,511,506,0,0,38,0
4,0,0,0,0,513,504,0,0,38,0
5,0,0,0,0,509,506,0,0,38,0
6,0,0,0,0,503,507,0,0,38,0
7,0,0,0,0,479,508,0,0,38,0
8,0,0,0,0,501,507,0,0,38,0
9,0,0,0,0,515,509,0,0,38,0
10,0,0,0,0,502,510,0,0,38,0
11,0,0,0,0,505,508,0,0,38,0
12,0,0,0,0,494,508,0,0,38,0
13,0,0,0,0,501,508,0,0,38,0
14,0,0,0,0,533,507,0,0,38,0
15,0,0,0,0,520,508,0,0,38,0
0,0,0,0,0,520,507,0,0,39,0
1,0,0,0,0,526,507,0,0,38,0
2,0,0,0,0,544,509,0,0,39,0
3,0,0,0,0,543,509,0,0,38,0
4,0,0,0,0,511,509,0,0,38,0
5,0,0,0,0,485,507,0,0,38,0
6,0,0,0,0,477,507,0,0,38,0
7,0,0,0,0,487,504,0,0,38,0
8,0,0,0,0,503,504,0,135,38,0
9,0,0,0,0,507,506,0,311,38,0
10,0,0,0,0,486,505,0,466,39,0
11,0,0,0,0,459,507,0,661,38,0
12,0,0,0,0,489,505,0,863,38,0
13,0,0,0,0,523,506,0,1018,38,0
14,0,0,0,0,539,507,0,1018,38,0
15,0,0,0,0,543,508,0,1018,38,0
0,0,0,0,0,554,509,0,1018,38,0
1,0,0,0,0,527,510,0,1018,38,0
2,0,0,0,0,505,510,0,1017,38,0
3,0,0,0,0,480,509,0,940,38,0
4,0,0,0,0,460,508,0,958,38,0
5,0,0,0,0,467,509,0,1018,38,0
6,0,0,0,0,487,510,0,1018,38,0
7,0,0,0,0,501,509,0,1018,38,0
8,0,0,0,0,523,508,0,1018,38,0
9,0,0,0,0,537,505,0,1018,38,0
10,0,0,0,0,528,505,0,1018,39,0
11,0,0,0,0,515,506,0,1018,38,0
12,0,0,0,0,535,507,0,1018,38,0
13,0,0,0,0,565,509,0,1017,38,0
14,0,0,0,0,560,510,0,1018,38,0
15,0,0,0,0,512,508,0,871,38,0
0,0,0,0,0,494,507,0,686,38,0
1,0,0,0,0,483,508,0,542,38,0
2,0,0,0,0,452,507,0,283,39,0
3,0,0,0,0,438,507,0,73,38,0
4,0,0,0,0,456,504,0,0,38,0
5,0,0,0,0,510,505,0,0,38,0
6,0,0,0,0,553,505,0,0,38,0
7,0,0,0,0,548,506,0,0,38,0
8,0,0,0,0,540,507,0,0,38,0
9,0,0,0,0,508,504,0,0,38,0
10,0,0,0,0,475,505,0,0,39,0
11,0,0,0,0,504,506,0,0,38,0
12,0,0,0,0,516,507,0,0,38,0
13,0,0,0,0,510,508,0,0,38,0
14,0,0,0,0,502,508,0,0,38,0
15,0,0,0,0,510,509,0,0,38,0
0,0,0,0,0,527,508,0,0,38,0
1,0,0,0,0,527,510,0,0,38,0
2,0,0,0,0,524,509,0,0,39,0
3,0,0,0,0,518,508,0,0,38,0
4,0,0,0,0,513,507,0,0,38,0
5,0,0,0,0,505,508,0,0,38,0
6,0,0,0,0,510,508,0,0,38,0
7,0,0,0,0,514,506,0,0,38,0
8,0,0,0,0,509,506,0,0,38,0
9,0,0,0,0,499,505,0,0,38,0
10,0,0,0,0,512,506,0,0,38,0
11,0,0,0,0,515,507,0,0,38,0
12,0,0,0,0,498,505,0,0,38,0
13,0,0,0,0,500,505,0,0,38,0
14,0,0,0,0,527,506,0,0,38,0
15,0,0,0,0,542,508,0,0,38,0
0,0,0,0,0,545,507,0,0,38,0
1,0,0,0,0,499,506,0,0,38,0
2,0,0,0,0,508,507,0,0,38,0
3,0,0,0,0,506,506,0,0,38,0
4,0,0,0,0,504,506,0,0,38,0
5,0,0,0,0,477,508,0,0,38,0
6,0,0,0,0,445,508,0,0,38,0
7,0,0,0,0,444,507,0,0,38,0
8,0,0,0,0,452,508,0,0,38,0
9,0,0,0,0,489,508,0,0,38,0
10,0,0,0,0,501,510,0,0,39,0
11,0,0,0,0,492,510,0,0,38,0
12,0,0,0,0,524,511,0,0,38,0
13,0,0,0,0,553,512,0,0,38,0
14,0,0,0,0,561,512,0,0,38,0
15,0,0,0,0,555,512,0,0,38,0
0,0,0,0,0,551,510,0,0,38,0
1,0,0,0,0,535,508,0,0,38,0
2,0,0,0,0,510,508,0,0,38,0
3,0,0,0,0,505,508,0,0,38,0
4,0,0,0,0,508,508,0,0,38,0
5,0,0,0,0,508,507,0,0,38,0
6,0,0,0,0,505,507,0,0,38,0
7,0,0,0,0,495,510,0,535,38,0
8,0,0,0,0,492,510,0,1018,38,0
9,0,0,0,0,492,511,0,1018,38,0
10,0,0,0,0,505,512,0,1018,39,0
11,0,0,0,0,540,510,0,1018,38,0
12,0,0,0,0,591,510,0,1018,38,0
13,0,0,0,0,597,512,0,1018,38,0
14,0,0,0,0,543,511,0,1018,38,0
15,0,0,0,0,499,510,0,1018,38,0
0,0,0,0,0,457,510,0,1018,38,0
1,0,0,0,0,439,511,0,1018,38,0
2,0,0,0,0,455,511,0,1018,38,0
3,0,0,0,0,403,512,0,1017,38,0
4,0,0,0,0,387,511,0,1018,38,0
5,0,0,0,0,455,508,0,1018,38,0
6,0,0,0,0,516,508,0,1017,38,0
7,0,0,0,0,539,508,0,1018,38,0
8,0,0,0,0,550,507,0,1017,38,0
9,0,0,0,0,581,505,0,1018,38,0
10,0,0,0,0,580,506,0,1018,39,0
11,0,0,0,0,577,507,0,1018,38,0
12,0,0,0,0,536,508,0,1018,38,0
13,0,0,0,0,515,508,0,1018,38,0
14,0,0,0,0,469,507,0,1018,38,0
15,0,0,0,0,450,508,0,1018,38,0
0,0,0,0,0,459,508,0,1018,38,0
1,0,0,0,0,481,508,0,1018,38,0
2,0,0,0,0,500,509,0,1018,38,0
3,0,0,0,0,525,509,0,1018,38,0
4,0,0,0,0,528,508,0,1018,38,0
5,0,0,0,0,514,508,0,1018,38,0
6,0,0,0,0,518,507,0,1018,38,0
7,0,0,0,0,526,507,0,1018,38,0
