timestamp,0,1,2,3,4,5,6,7,8,9
0,0,0,0,0,511,506,0,1018,38,0
1,0,0,0,0,508,507,0,1018,38,0
2,0,0,0,0,511,506,0,1018,38,0
3,0,0,0,0,510,505,0,1018,38,0
4,0,0,0,0,509,505,0,1018,38,0
5,0,0,0,0,511,504,0,1018,38,0
6,0,0,0,0,508,505,0,1018,38,1
7,0,0,0,0,509,505,0,1018,39,1
8,0,0,0,0,508,505,0,1018,38,0
9,0,0,0,0,512,508,0,1018,38,0
10,0,0,0,0,509,508,0,1018,38,0
11,0,0,0,0,510,509,0,1018,38,0
12,0,0,0,0,511,510,0,1018,38,0
13,0,0,0,0,510,509,0,1018,38,0
14,0,0,0,0,507,510,0,1018,38,1
15,0,0,0,0,508,509,0,1018,39,0
0,0,0,0,0,509,509,0,1018,38,0
1,0,0,0,0,510,509,0,1018,38,0
2,0,0,0,0,510,507,0,1018,38,0
3,0,0,0,0,512,507,0,1018,38,0
4,0,0,0,0,509,508,0,1018,38,0
5,0,0,0,0,508,508,0,1018,38,0
6,0,0,0,0,511,505,0,1018,38,1
7,0,0,0,0,507,504,0,1018,39,1
8,0,0,0,0,509,507,0,1018,38,0
9,0,0,0,0,507,508,0,1018,38,0
10,0,0,0,0,508,508,0,1018,38,0
11,0,0,0,0,510,510,0,1018,38,0
12,0,0,0,0,509,510,0,1018,38,0
13,0,0,0,0,509,511,0,1018,38,0
14,0,0,0,0,509,512,0,1018,38,1
15,0,0,0,0,508,512,0,1018,39,0
0,0,0,0,0,510,512,0,1018,38,0
1,0,0,0,0,510,511,0,1018,38,0
2,0,0,0,0,509,510,0,1018,38,0
3,0,0,0,0,509,511,0,1018,38,0
4,0,0,0,0,507,511,0,1018,38,0
5,0,0,0,0,509,509,0,1018,38,0
6,0,0,0,0,510,509,0,1018,38,0
7,0,0,0,0,510,510,0,1018,39,0
8,0,0,0,0,509,507,0,1018,38,0
9,0,0,0,0,508,509,0,1018,38,0
10,0,0,0,0,509,508,0,1018,38,0
11,0,0,0,0,508,508,0,1018,38,0
12,0,0,0,0,511,508,0,1018,38,0
13,0,0,0,0,508,508,0,1018,38,0
14,0,0,0,0,509,506,0,1018,38,0
15,0,0,0,0,511,504,0,1018,39,0
0,0,0,0,0,509,504,0,1018,38,0
1,0,0,0,0,509,504,0,1018,38,0
2,0,0,0,0,508,504,0,1018,38,0
3,0,0,0,0,508,505,0,1018,38,0
4,0,0,0,0,509,504,0,1018,38,0
5,0,0,0,0,508,504,0,1018,38,0
6,0,0,0,0,507,506,0,1018,38,0
7,0,0,0,0,511,505,0,1018,39,0
8,0,0,0,0,510,503,0,1018,38,0
9,0,0,0,0,510,504,0,1018,38,0
10,0,0,0,0,508,505,0,1018,38,0
11,0,0,0,0,509,507,0,1018,38,0
12,0,0,0,0,510,507,0,1018,38,0
13,0,0,0,0,509,508,0,1018,38,0
14,0,0,0,0,511,511,0,1018,38,0
15,0,0,0,0,509,511,0,1018,39,0
0,0,0,0,0,511,512,0,1018,38,0
1,0,0,0,0,505,510,0,1018,38,0
2,0,0,0,0,509,510,0,1018,38,0
3,0,0,0,0,510,508,0,1018,38,0
4,0,0,0,0,509,507,0,1018,38,0
5,0,0,0,0,508,507,0,1018,38,0
6,0,0,0,0,511,507,0,1018,38,0
7,0,0,0,0,508,508,0,1018,39,0
8,0,0,0,0,508,508,0,1018,38,0
9,0,0,0,0,509,509,0,1018,38,0
10,0,0,0,0,512,508,0,1018,38,0
11,0,0,0,0,510,508,0,1018,38,0
12,0,0,0,0,511,508,0,1018,38,0
13,0,0,0,0,510,509,0,728,38,0
14,0,0,0,0,505,508,0,365,38,0
15,0,0,0,0,507,508,0,105,39,0
0,0,0,0,0,507,507,0,48,38,0
1,0,0,0,0,511,506,0,0,38,1
2,0,0,0,0,509,505,0,0,38,0
3,0,0,0,0,511,506,0,0,38,0
4,0,0,0,0,508,507,0,0,38,0
5,0,0,0,0,508,507,0,166,38,0
6,0,0,0,0,508,508,0,255,38,0
7,0,0,0,0,510,510,0,208,39,0
8,0,0,0,0,508,510,0,209,38,0
9,0,0,0,0,507,511,0,33,38,1
10,0,0,0,0,509,511,0,0,38,0
11,0,0,0,0,510,508,0,0,38,0
12,0,0,0,0,511,510,0,0,38,0
13,0,0,0,0,507,509,0,0,38,0
14,0,0,0,0,510,508,0,0,38,0
15,0,0,0,0,509,508,0,0,39,0
0,0,0,0,0,509,508,0,0,38,0
1,0,0,0,0,510,508,0,0,38,1
2,0,0,0,0,509,508,0,0,38,0
3,0,0,0,0,509,508,0,0,38,1
4,0,0,0,0,508,508,0,0,38,0
5,0,0,0,0,510,509,0,0,38,0
6,0,0,0,0,508,510,0,0,38,0
7,0,0,0,0,508,508,0,0,39,0
8,0,0,0,0,509,508,0,0,38,0
9,0,0,0,0,510,507,0,0,38,0
10,0,0,0,0,508,506,0,0,38,0
11,0,0,0,0,507,507,0,0,38,1
12,0,0,0,0,510,510,0,0,38,0
13,0,0,0,0,511,508,0,0,38,0
14,0,0,0,0,512,506,0,0,38,0
15,0,0,0,0,509,506,0,0,39,0
0,0,0,0,0,510,508,0,0,38,0
1,0,0,0,0,509,508,0,0,38,0
2,0,0,0,0,509,509,0,0,38,0
3,0,0,0,0,511,506,0,0,38,1
4,0,0,0,0,510,504,0,0,38,0
5,0,0,0,0,511,505,0,0,38,0
6,0,0,0,0,508,506,0,0,38,0
7,0,0,0,0,508,507,0,0,39,0
8,0,0,0,0,510,507,0,0,38,0
9,0,0,0,0,510,508,0,0,38,0
10,0,0,0,0,510,508,0,0,38,0
11,0,0,0,0,510,507,0,0,38,1
12,0,0,0,0,509,509,0,0,38,1
13,0,0,0,0,508,509,0,0,38,0
14,0,0,0,0,508,507,0,0,38,0
15,0,0,0,0,510,508,0,0,39,0
0,0,0,0,0,508,509,0,0,38,0
1,0,0,0,0,509,510,0,0,38,0
2,0,0,0,0,510,510,0,0,38,0
3,0,0,0,0,507,511,0,0,38,1
4,0,0,0,0,509,510,0,0,38,1
5,0,0,0,0,507,509,0,0,38,0
6,0,0,0,0,509,510,0,0,38,0
7,0,0,0,0,509,509,0,0,39,0
8,0,0,0,0,508,508,0,0,38,0
9,0,0,0,0,508,509,0,0,38,0
10,0,0,0,0,508,508,0,0,38,0
11,0,0,0,0,510,507,0,0,38,1
12,0,0,0,0,509,506,0,0,38,1
13,0,0,0,0,508,506,0,0,38,1
14,0,0,0,0,510,507,0,0,38,0
15,0,0,0,0,507,507,0,0,39,0
0,0,0,0,0,507,508,0,0,38,0
1,0,0,0,0,509,510,0,0,38,0
2,0,0,0,0,510,508,0,0,38,0
3,0,0,0,0,510,509,0,0,38,1
4,0,0,0,0,508,507,0,0,38,1
5,0,0,0,0,509,507,0,0,38,1
6,0,0,0,0,508,507,0,0,38,1
7,0,0,0,0,508,508,0,0,39,0
8,0,0,0,0,509,508,0,0,38,0
9,0,0,0,0,511,508,0,0,38,0
10,0,0,0,0,508,508,0,0,38,0
11,0,0,0,0,509,508,0,0,38,1
12,0,0,0,0,510,509,0,0,38,1
13,0,0,0,0,509,508,0,0,38,1
14,0,0,0,0,508,506,0,0,38,1
15,0,0,0,0,508,507,0,0,39,0
0,0,0,0,0,508,508,0,0,38,0
1,0,0,0,0,510,507,0,0,38,0
2,0,0,0,0,511,509,0,0,38,0
3,0,0,0,0,508,507,0,0,38,0
4,0,0,0,0,508,507,0,0,38,1
5,0,0,0,0,508,508,0,0,38,1
6,0,0,0,0,508,508,0,0,38,1
7,0,0,0,0,511,508,0,0,39,0
8,0,0,0,0,507,507,0,0,38,0
9,0,0,0,0,508,508,0,0,38,0
10,0,0,0,0,510,508,0,0,38,0
11,0,0,0,0,511,507,0,0,38,0
12,0,0,0,0,511,508,0,0,38,0
13,0,0,0,0,509,509,0,0,38,1
14,0,0,0,0,511,509,0,0,38,1
15,0,0,0,0,509,508,0,0,39,0
0,0,0,0,0,509,508,0,0,38,0
1,0,0,0,0,510,507,0,0,38,0
2,0,0,0,0,508,508,0,0,38,0
3,0,0,0,0,508,509,0,0,38,0
4,0,0,0,0,507,508,0,0,38,1
5,0,0,0,0,508,507,0,0,38,1
6,0,0,0,0,509,506,0,0,38,1
7,0,0,0,0,508,507,0,0,39,0
8,0,0,0,0,510,507,0,0,38,0
9,0,0,0,0,506,505,0,0,38,0
10,0,0,0,0,509,506,0,0,38,0
11,0,0,0,0,510,507,0,0,38,0
12,0,0,0,0,510,508,0,0,38,0
13,0,0,0,0,508,507,0,0,38,1
14,0,0,0,0,509,507,0,0,38,1
15,0,0,0,0,506,507,0,0,39,0
0,0,0,0,0,508,506,0,0,38,0
1,0,0,0,0,509,506,0,0,38,0
2,0,0,0,0,507,506,0,0,38,0
3,0,0,0,0,510,505,0,0,38,0
4,0,0,0,0,510,506,0,0,38,1
5,0,0,0,0,508,504,0,0,38,0
6,0,0,0,0,510,505,0,0,38,1
7,0,0,0,0,511,504,0,0,39,0
8,0,0,0,0,507,505,0,0,38,0
9,0,0,0,0,510,506,0,0,38,0
10,0,0,0,0,509,506,0,0,38,0
11,0,0,0,0,510,505,0,0,38,0
12,0,0,0,0,509,505,0,0,38,0
13,0,0,0,0,510,505,0,0,38,0
14,0,0,0,0,507,506,0,0,38,1
15,0,0,0,0,511,506,0,0,39,0
0,0,0,0,0,507,508,0,0,38,0
1,0,0,0,0,509,508,0,0,38,0
2,0,0,0,0,510,507,0,0,38,0
3,0,0,0,0,507,506,0,0,38,0
4,0,0,0,0,511,506,0,0,38,0
5,0,0,0,0,510,506,0,0,38,0
6,0,0,0,0,507,507,0,0,38,1
7,0,0,0,0,508,508,0,0,39,1
8,0,0,0,0,509,507,0,0,38,0
9,0,0,0,0,508,507,0,0,38,0
10,0,0,0,0,510,508,0,0,38,0
11,0,0,0,0,507,508,0,0,38,0
12,0,0,0,0,510,508,0,0,38,0
13,0,0,0,0,511,508,0,0,38,0
14,0,0,0,0,510,509,0,0,38,1
15,0,0,0,0,508,510,0,0,39,1
0,0,0,0,0,513,510,0,0,38,0
1,0,0,0,0,511,510,0,0,38,0
2,0,0,0,0,512,509,0,0,38,0
3,0,0,0,0,512,508,0,0,38,0
4,0,0,0,0,508,509,0,0,38,0
5,0,0,0,0,509,509,0,198,38,0
6,0,0,0,0,509,508,0,419,38,1
7,0,0,0,0,510,509,0,587,39,0
8,0,0,0,0,511,507,0,743,38,0
9,0,0,0,0,509,507,0,926,38,0
10,0,0,0,0,509,508,0,1018,38,0
11,0,0,0,0,508,507,0,1018,38,0
12,0,0,0,0,509,507,0,1018,38,0
13,0,0,0,0,511,507,0,1018,38,0
14,0,0,0,0,509,508,0,1018,38,1
15,0,0,0,0,507,509,0,1018,39,1
0,0,0,0,0,506,510,0,1018,38,0
1,0,0,0,0,506,512,0,1018,38,0
2,0,0,0,0,507,510,0,1018,38,0
3,0,0,0,0,511,510,0,1018,38,0
4,0,0,0,0,508,511,0,1018,38,0
5,0,0,0,0,508,509,0,1018,38,0
6,0,0,0,0,511,510,0,1018,38,1
7,0,0,0,0,511,508,0,1018,39,0
8,0,0,0,0,509,509,0,1018,38,1
9,0,0,0,0,511,509,0,1018,38,0
10,0,0,0,0,508,509,0,1018,38,0
11,0,0,0,0,509,510,0,1018,38,0
12,0,0,0,0,509,510,0,841,38,0
13,0,0,0,0,508,509,0,754,38,0
14,0,0,0,0,508,510,0,747,38,0
15,0,0,0,0,508,511,0,842,39,0
0,0,0,0,0,509,512,0,1017,38,1
1,0,0,0,0,510,511,0,1017,38,1
2,0,0,0,0,509,510,0,1018,38,0
3,0,0,0,0,508,509,0,1018,38,0
4,0,0,0,0,508,509,0,1018,38,0
5,0,0,0,0,509,511,0,1018,38,0
6,0,0,0,0,510,511,0,1018,38,0
7,0,0,0,0,509,509,0,1018,39,0
8,0,0,0,0,508,508,0,1018,38,0
9,0,0,0,0,510,508,0,1018,38,0
10,0,0,0,0,507,508,0,1018,38,0
11,0,0,0,0,511,508,0,1018,38,0
12,0,0,0,0,508,507,0,1018,38,0
13,0,0,0,0,508,508,0,1017,38,0
14,0,0,0,0,510,509,0,779,38,0
15,0,0,0,0,509,508,0,697,39,0
0,0,0,0,0,511,507,0,642,38,0
1,0,0,0,0,509,506,0,676,38,1
2,0,0,0,0,508,506,0,600,38,0
3,0,0,0,0,510,506,0,399,38,0
4,0,0,0,0,509,507,0,108,38,0
5,0,0,0,0,511,507,0,0,38,0
6,0,0,0,0,508,508,0,0,38,0
7,0,0,0,0,508,508,0,0,39,0
8,0,0,0,0,509,507,0,0,38,0
9,0,0,0,0,509,508,0,0,38,1
10,0,0,0,0,509,509,0,0,38,0
11,0,0,0,0,509,510,0,0,38,0
12,0,0,0,0,508,510,0,0,38,0
13,0,0,0,0,510,510,0,0,38,0
14,0,0,0,0,507,508,0,0,38,0
15,0,0,0,0,510,508,0,0,39,0
0,0,0,0,0,508,510,0,0,38,0
1,0,0,0,0,510,510,0,0,38,0
2,0,0,0,0,508,508,0,0,38,0
3,0,0,0,0,508,507,0,0,38,0
4,0,0,0,0,509,507,0,0,38,0
5,0,0,0,0,508,507,0,0,38,0
6,0,0,0,0,511,508,0,0,38,0
7,0,0,0,0,508,508,0,0,39,0
8,0,0,0,0,510,507,0,0,38,0
9,0,0,0,0,510,508,0,0,38,0
10,0,0,0,0,508,508,0,0,38,0
11,0,0,0,0,508,506,0,0,38,0
12,0,0,0,0,509,506,0,0,38,0
13,0,0,0,0,509,505,0,0,38,0
14,0,0,0,0,510,507,0,0,38,0
15,0,0,0,0,506,507,0,0,39,0
0,0,0,0,0,510,506,0,0,38,0
1,0,0,0,0,509,507,0,0,38,0
2,0,0,0,0,508,506,0,0,38,0
3,0,0,0,0,511,506,0,0,38,0
4,0,0,0,0,509,507,0,0,38,0
5,0,0,0,0,509,506,0,0,38,0
6,0,0,0,0,510,505,0,0,38,0
7,0,0,0,0,508,506,0,0,39,0
8,0,0,0,0,511,506,0,0,38,0
9,0,0,0,0,509,506,0,0,38,0
10,0,0,0,0,508,506,0,0,38,0
11,0,0,0,0,509,505,0,0,38,1
12,0,0,0,0,508,505,0,0,38,0
13,0,0,0,0,509,504,0,0,38,0
14,0,0,0,0,506,506,0,0,38,0
15,0,0,0,0,509,506,0,0,39,0
0,0,0,0,0,507,506,0,0,38,0
1,0,0,0,0,508,505,0,0,38,0
2,0,0,0,0,509,506,0,0,38,0
3,0,0,0,0,509,505,0,0,38,1
4,0,0,0,0,508,505,0,0,38,1
5,0,0,0,0,507,503,0,0,38,0
6,0,0,0,0,510,504,0,0,38,0
7,0,0,0,0,513,504,0,0,39,0
8,0,0,0,0,510,504,0,0,38,0
9,0,0,0,0,510,506,0,0,38,0
10,0,0,0,0,509,508,0,0,38,0
11,0,0,0,0,510,506,0,0,38,1
12,0,0,0,0,509,507,0,0,38,0
13,0,0,0,0,506,508,0,0,38,0
14,0,0,0,0,509,507,0,0,38,0
15,0,0,0,0,510,505,0,0,39,0
0,0,0,0,0,508,504,0,0,38,0
1,0,0,0,0,508,505,0,0,38,0
2,0,0,0,0,504,507,0,0,38,0
3,0,0,0,0,507,508,0,0,38,1
4,0,0,0,0,507,508,0,0,38,1
5,0,0,0,0,508,508,0,0,38,0
6,0,0,0,0,509,509,0,0,38,0
7,0,0,0,0,509,511,0,0,39,0
8,0,0,0,0,510,509,0,0,38,0
9,0,0,0,0,511,508,0,0,38,0
10,0,0,0,0,509,510,0,0,38,0
11,0,0,0,0,512,510,0,0,38,1
12,0,0,0,0,507,510,0,0,38,1
13,0,0,0,0,511,509,0,0,38,1
14,0,0,0,0,509,509,0,0,38,0
15,0,0,0,0,508,506,0,0,39,0
0,0,0,0,0,510,506,0,0,38,0
1,0,0,0,0,508,507,0,0,38,0
2,0,0,0,0,508,508,0,0,38,0
3,0,0,0,0,508,505,0,0,38,1
4,0,0,0,0,509,505,0,0,38,1
5,0,0,0,0,511,505,0,0,38,1
6,0,0,0,0,508,507,0,0,38,1
7,0,0,0,0,509,507,0,0,39,0
8,0,0,0,0,508,506,0,0,38,0
9,0,0,0,0,508,507,0,0,38,0
10,0,0,0,0,510,508,0,0,38,0
11,0,0,0,0,509,510,0,0,38,1
12,0,0,0,0,509,508,0,0,38,1
13,0,0,0,0,511,508,0,0,38,1
14,0,0,0,0,508,507,0,0,38,1
15,0,0,0,0,511,508,0,0,39,0
0,0,0,0,0,508,508,0,0,38,0
1,0,0,0,0,509,508,0,0,38,0
2,0,0,0,0,508,509,0,0,38,0
3,0,0,0,0,505,508,0,0,38,0
4,0,0,0,0,511,507,0,0,38,1
5,0,0,0,0,508,508,0,0,38,1
6,0,0,0,0,510,509,0,0,38,1
7,0,0,0,0,508,509,0,0,39,0
8,0,0,0,0,510,508,0,0,38,0
9,0,0,0,0,511,508,0,0,38,0
10,0,0,0,0,510,507,0,0,38,0
11,0,0,0,0,508,506,0,0,38,0
12,0,0,0,0,508,505,0,0,38,1
13,0,0,0,0,509,506,0,0,38,1
14,0,0,0,0,510,505,0,0,38,1
15,0,0,0,0,508,507,0,0,39,0
0,0,0,0,0,510,508,0,0,38,0
1,0,0,0,0,508,509,0,0,38,0
2,0,0,0,0,508,509,0,0,38,0
3,0,0,0,0,509,507,0,0,38,0
4,0,0,0,0,508,508,0,0,38,0
5,0,0,0,0,510,508,0,0,38,1
6,0,0,0,0,508,507,0,0,38,1
7,0,0,0,0,508,507,0,0,39,0
8,0,0,0,0,509,507,0,0,38,0
9,0,0,0,0,508,507,0,0,38,0
10,0,0,0,0,511,508,0,0,38,0
11,0,0,0,0,508,508,0,0,38,0
12,0,0,0,0,508,510,0,0,38,0
13,0,0,0,0,510,511,0,0,38,1
14,0,0,0,0,508,511,0,0,38,1
15,0,0,0,0,509,512,0,0,39,1
0,0,0,0,0,511,512,0,0,38,0
1,0,0,0,0,509,511,0,0,38,0
2,0,0,0,0,510,511,0,0,38,0
3,0,0,0,0,508,509,0,0,38,0
4,0,0,0,0,508,512,0,0,38,0
5,0,0,0,0,506,511,0,0,38,0
6,0,0,0,0,509,511,0,0,38,1
7,0,0,0,0,508,511,0,0,39,1
8,0,0,0,0,508,511,0,0,38,0
9,0,0,0,0,509,512,0,0,38,0
10,0,0,0,0,510,512,0,0,38,0
11,0,0,0,0,510,510,0,0,38,0
12,0,0,0,0,510,507,0,0,38,0
13,0,0,0,0,509,508,0,0,38,0
14,0,0,0,0,509,508,0,0,38,1
15,0,0,0,0,507,507,0,0,39,1
0,0,0,0,0,509,507,0,0,38,0
1,0,0,0,0,508,507,0,0,38,0
2,0,0,0,0,508,506,0,0,38,0
3,0,0,0,0,507,505,0,0,38,0
4,0,0,0,0,509,505,0,0,38,0
5,0,0,0,0,510,506,0,0,38,0
6,0,0,0,0,510,506,0,0,38,1
7,0,0,0,0,509,505,0,0,39,1
8,0,0,0,0,510,506,0,0,38,0
9,0,0,0,0,510,506,0,0,38,0
10,0,0,0,0,507,506,0,0,38,0
11,0,0,0,0,510,507,0,0,38,0
12,0,0,0,0,509,507,0,0,38,0
13,0,0,0,0,508,508,0,0,38,0
14,0,0,0,0,511,507,0,0,38,1
15,0,0,0,0,508,507,0,0,39,1
0,0,0,0,0,508,508,0,0,38,0
1,0,0,0,0,507,509,0,0,38,0
2,0,0,0,0,509,509,0,0,38,0
3,0,0,0,0,510,508,0,0,38,0
4,0,0,0,0,509,507,0,0,38,0
5,0,0,0,0,510,509,0,0,38,0
6,0,0,0,0,507,509,0,0,38,1
7,0,0,0,0,506,509,0,0,39,1
8,0,0,0,0,509,508,0,0,38,1
9,0,0,0,0,509,510,0,0,38,1
10,0,0,0,0,510,510,0,0,38,0
11,0,0,0,0,508,508,0,0,38,0
12,0,0,0,0,509,508,0,0,38,0
13,0,0,0,0,510,508,0,0,38,0
14,0,0,0,0,508,508,0,0,38,0
15,0,0,0,0,509,509,0,0,39,0
0,0,0,0,0,509,509,0,0,38,1
1,0,0,0,0,508,509,0,0,38,0
2,0,0,0,0,506,508,0,0,38,0
3,0,0,0,0,508,510,0,0,38,0
4,0,0,0,0,509,510,0,0,38,0
5,0,0,0,0,507,510,0,0,38,0
6,0,0,0,0,508,508,0,0,38,0
7,0,0,0,0,510,508,0,0,39,0
8,0,0,0,0,510,508,0,0,38,1
9,0,0,0,0,510,508,0,0,38,0
10,0,0,0,0,507,508,0,0,38,0
11,0,0,0,0,509,508,0,0,38,0
12,0,0,0,0,512,508,0,0,38,0
13,0,0,0,0,509,508,0,0,38,0
14,0,0,0,0,511,507,0,0,38,0
15,0,0,0,0,508,507,0,0,39,0
0,0,0,0,0,508,507,0,0,38,1
1,0,0,0,0,507,506,0,0,38,1
2,0,0,0,0,512,504,0,0,38,0
3,0,0,0,0,511,504,0,0,38,0
4,0,0,0,0,511,504,0,0,38,0
5,0,0,0,0,509,505,0,0,38,0
6,0,0,0,0,508,504,0,0,38,0
7,0,0,0,0,508,504,0,0,39,0
8,0,0,0,0,509,504,0,0,38,1
9,0,0,0,0,508,505,0,0,38,0
10,0,0,0,0,507,505,0,0,38,0
11,0,0,0,0,508,505,0,0,38,0
12,0,0,0,0,507,504,0,0,38,0
13,0,0,0,0,509,503,0,0,38,0
14,0,0,0,0,510,503,0,0,38,0
15,0,0,0,0,510,506,0,0,39,0
0,0,0,0,0,510,507,0,0,38,0
1,0,0,0,0,509,506,0,0,38,0
2,0,0,0,0,510,506,0,0,38,0
3,0,0,0,0,508,506,0,0,38,0
4,0,0,0,0,511,506,0,0,38,0
5,0,0,0,0,510,506,0,0,38,0
6,0,0,0,0,508,507,0,0,38,0
7,0,0,0,0,509,507,0,0,39,0
8,0,0,0,0,508,508,0,0,38,0
9,0,0,0,0,509,508,0,0,38,0
10,0,0,0,0,509,508,0,0,38,0
11,0,0,0,0,508,507,0,0,38,0
12,0,0,0,0,511,507,0,0,38,0
13,0,0,0,0,509,506,0,0,38,0
14,0,0,0,0,510,507,0,0,38,0
15,0,0,0,0,509,506,0,0,39,0
0,0,0,0,0,511,505,0,0,38,0
1,0,0,0,0,510,509,0,0,38,0
2,0,0,0,0,508,509,0,0,38,0
3,0,0,0,0,510,510,0,0,38,0
4,0,0,0,0,511,510,0,0,38,0
5,0,0,0,0,509,509,0,0,38,0
6,0,0,0,0,511,509,0,0,38,0
7,0,0,0,0,509,510,0,0,39,0
8,0,0,0,0,512,511,0,0,38,0
9,0,0,0,0,508,510,0,0,38,0
10,0,0,0,0,508,510,0,0,38,0
11,0,0,0,0,510,509,0,359,38,0
12,0,0,0,0,508,509,0,556,38,0
13,0,0,0,0,511,507,0,709,38,0
14,0,0,0,0,512,507,0,878,38,0
15,0,0,0,0,509,508,0,1018,39,0
0,0,0,0,0,510,508,0,1018,38,0
1,0,0,0,0,509,508,0,1018,38,0
2,0,0,0,0,510,510,0,1018,38,0
3,0,0,0,0,509,508,0,1018,38,1
4,0,0,0,0,508,507,0,1018,38,0
5,0,0,0,0,507,508,0,1018,38,0
6,0,0,0,0,508,507,0,1018,38,0
7,0,0,0,0,509,507,0,866,39,0
8,0,0,0,0,507,504,0,724,38,0
9,0,0,0,0,510,504,0,541,38,0
10,0,0,0,0,511,504,0,424,38,0
11,0,0,0,0,507,505,0,376,38,1
12,0,0,0,0,507,507,0,322,38,0
13,0,0,0,0,509,507,0,342,38,0
14,0,0,0,0,508,507,0,507,38,0
15,0,0,0,0,509,507,0,819,39,0
0,0,0,0,0,510,507,0,1018,38,0
1,0,0,0,0,509,507,0,1018,38,0
2,0,0,0,0,510,507,0,1018,38,0
3,0,0,0,0,511,505,0,1018,38,1
4,0,0,0,0,511,506,0,1018,38,0
5,0,0,0,0,509,507,0,1018,38,0
6,0,0,0,0,508,507,0,1018,38,0
7,0,0,0,0,509,505,0,1018,39,0
8,0,0,0,0,509,507,0,1018,38,0
9,0,0,0,0,510,507,0,1017,38,0
10,0,0,0,0,509,507,0,1018,38,0
11,0,0,0,0,509,508,0,1018,38,1
12,0,0,0,0,509,508,0,1018,38,1
13,0,0,0,0,508,508,0,1018,38,0
14,0,0,0,0,510,510,0,1018,38,0
15,0,0,0,0,507,511,0,1018,39,0
0,0,0,0,0,510,510,0,1018,38,0
1,0,0,0,0,510,509,0,1018,38,0
2,0,0,0,0,510,509,0,1018,38,0
3,0,0,0,0,511,509,0,1018,38,1
4,0,0,0,0,509,508,0,1018,38,1
5,0,0,0,0,509,507,0,1018,38,1
6,0,0,0,0,510,508,0,1018,38,0
7,0,0,0,0,508,508,0,1018,39,0
8,0,0,0,0,511,508,0,1018,38,0
9,0,0,0,0,510,509,0,1018,38,0
10,0,0,0,0,510,509,0,1018,38,0
11,0,0,0,0,509,507,0,1018,38,1
12,0,0,0,0,508,507,0,1018,38,1
13,0,0,0,0,508,508,0,1018,38,1
14,0,0,0,0,510,508,0,1018,38,0
15,0,0,0,0,510,509,0,1018,39,0
0,0,0,0,0,511,507,0,1018,38,0
1,0,0,0,0,509,508,0,1018,38,0
2,0,0,0,0,511,508,0,1018,38,0
3,0,0,0,0,506,508,0,1018,38,1
4,0,0,0,0,508,509,0,1018,38,1
5,0,0,0,0,510,510,0,1018,38,1
6,0,0,0,0,508,509,0,1018,38,1
7,0,0,0,0,509,510,0,1018,39,0
8,0,0,0,0,509,511,0,1018,38,0
9,0,0,0,0,509,511,0,1018,38,0
10,0,0,0,0,510,509,0,1018,38,0
11,0,0,0,0,511,510,0,1018,38,0
12,0,0,0,0,511,508,0,1018,38,1
13,0,0,0,0,508,510,0,1018,38,1
14,0,0,0,0,511,510,0,1018,38,1
15,0,0,0,0,508,507,0,1018,39,0
0,0,0,0,0,510,508,0,1018,38,0
1,0,0,0,0,509,508,0,1018,38,0
2,0,0,0,0,506,508,0,1018,38,0
3,0,0,0,0,511,509,0,1018,38,0
4,0,0,0,0,508,510,0,1018,38,1
5,0,0,0,0,508,510,0,1018,38,1
6,0,0,0,0,509,509,0,1018,38,1
7,0,0,0,0,510,509,0,1018,39,0
8,0,0,0,0,509,511,0,1018,38,0
9,0,0,0,0,509,510,0,1018,38,0
10,0,0,0,0,510,509,0,1018,38,0
11,0,0,0,0,512,508,0,1018,38,0
12,0,0,0,0,507,507,0,1018,38,1
13,0,0,0,0,508,509,0,1018,38,1
14,0,0,0,0,511,510,0,1018,38,1
15,0,0,0,0,508,511,0,1018,39,0
0,0,0,0,0,511,511,0,1018,38,0
1,0,0,0,0,508,511,0,1018,38,0
2,0,0,0,0,509,511,0,1018,38,0
3,0,0,0,0,511,510,0,1018,38,0
4,0,0,0,0,509,509,0,1018,38,0
5,0,0,0,0,511,509,0,1018,38,1
6,0,0,0,0,511,508,0,1018,38,1
7,0,0,0,0,512,508,0,1018,39,1
8,0,0,0,0,511,508,0,1018,38,0
9,0,0,0,0,508,509,0,1018,38,0
10,0,0,0,0,509,508,0,1018,38,0
11,0,0,0,0,510,508,0,1018,38,0
12,0,0,0,0,510,508,0,1018,38,0
13,0,0,0,0,508,508,0,1018,38,1
14,0,0,0,0,508,508,0,1018,38,1
15,0,0,0,0,510,506,0,1018,39,1
0,0,0,0,0,510,506,0,1018,38,0
1,0,0,0,0,509,506,0,1018,38,0
2,0,0,0,0,510,506,0,1018,38,0
3,0,0,0,0,510,506,0,1018,38,0
4,0,0,0,0,510,507,0,1018,38,0
5,0,0,0,0,508,508,0,1018,38,1
6,0,0,0,0,507,508,0,1018,38,1
7,0,0,0,0,508,506,0,1018,39,1
8,0,0,0,0,509,505,0,1018,38,0
9,0,0,0,0,510,507,0,1018,38,0
10,0,0,0,0,506,507,0,1018,38,0
11,0,0,0,0,508,506,0,1018,38,0
12,0,0,0,0,507,506,0,1018,38,0
13,0,0,0,0,509,509,0,1018,38,0
14,0,0,0,0,509,509,0,1018,38,1
15,0,0,0,0,509,509,0,1018,39,1
0,0,0,0,0,507,508,0,1018,38,1
1,0,0,0,0,510,508,0,1018,38,0
2,0,0,0,0,507,509,0,1018,38,0
3,0,0,0,0,510,510,0,1018,38,0
4,0,0,0,0,508,510,0,1018,38,0
5,0,0,0,0,509,510,0,1018,38,0
6,0,0,0,0,508,510,0,1018,38,1
7,0,0,0,0,507,509,0,1018,39,1
8,0,0,0,0,511,511,0,1018,38,0
9,0,0,0,0,509,511,0,1018,38,0
10,0,0,0,0,508,511,0,1018,38,0
11,0,0,0,0,511,510,0,1018,38,0
12,0,0,0,0,510,508,0,1018,38,0
13,0,0,0,0,510,509,0,1018,38,0
14,0,0,0,0,509,508,0,1018,38,1
15,0,0,0,0,510,508,0,1018,39,1
0,0,0,0,0,508,508,0,1018,38,1
1,0,0,0,0,510,507,0,1018,38,0
2,0,0,0,0,512,506,0,1018,38,0
3,0,0,0,0,511,506,0,1018,38,0
4,0,0,0,0,509,505,0,1018,38,0
5,0,0,0,0,510,504,0,1018,38,0
6,0,0,0,0,508,504,0,1018,38,1
7,0,0,0,0,511,505,0,1018,39,0
8,0,0,0,0,510,505,0,1018,38,1
9,0,0,0,0,508,505,0,1018,38,0
10,0,0,0,0,507,506,0,1018,38,0
11,0,0,0,0,508,506,0,1018,38,0
12,0,0,0,0,510,507,0,1018,38,0
13,0,0,0,0,507,506,0,1018,38,0
14,0,0,0,0,508,507,0,1018,38,1
15,0,0,0,0,508,507,0,1018,39,0
0,0,0,0,0,509,508,0,1017,38,1
1,0,0,0,0,510,510,0,285,38,0
2,0,0,0,0,508,510,0,0,38,0
3,0,0,0,0,508,508,0,0,38,0
4,0,0,0,0,508,507,0,0,38,0
5,0,0,0,0,509,508,0,0,38,0
6,0,0,0,0,510,508,0,0,38,0
7,0,0,0,0,509,507,0,0,39,0
8,0,0,0,0,508,506,0,0,38,1
9,0,0,0,0,507,505,0,0,38,0
10,0,0,0,0,507,507,0,0,38,0
11,0,0,0,0,508,506,0,0,38,0
12,0,0,0,0,507,505,0,0,38,0
13,0,0,0,0,508,508,0,0,38,0
14,0,0,0,0,512,507,0,0,38,0
15,0,0,0,0,510,508,0,0,39,0
0,0,0,0,0,510,508,0,0,38,0
1,0,0,0,0,509,509,0,0,38,0
2,0,0,0,0,510,510,0,0,38,0
3,0,0,0,0,509,509,0,0,38,0
4,0,0,0,0,508,509,0,0,38,0
5,0,0,0,0,509,510,0,0,38,0
6,0,0,0,0,509,512,0,0,38,0
7,0,0,0,0,511,513,0,0,39,0
8,0,0,0,0,510,513,0,0,38,0
9,0,0,0,0,510,511,0,0,38,0
10,0,0,0,0,509,511,0,0,38,0
11,0,0,0,0,510,509,0,0,38,0
12,0,0,0,0,507,509,0,0,38,0
13,0,0,0,0,509,508,0,0,38,0
14,0,0,0,0,508,507,0,0,38,0
15,0,0,0,0,512,507,0,0,39,0
0,0,0,0,0,507,507,0,0,38,0
1,0,0,0,0,508,509,0,0,38,0
2,0,0,0,0,509,510,0,0,38,0
3,0,0,0,0,509,509,0,0,38,0
4,0,0,0,0,511,507,0,0,38,0
5,0,0,0,0,509,507,0,0,38,0
6,0,0,0,0,508,508,0,0,38,0
7,0,0,0,0,509,507,0,0,39,0
8,0,0,0,0,509,509,0,0,38,0
9,0,0,0,0,509,508,0,0,38,1
10,0,0,0,0,508,508,0,0,38,0
11,0,0,0,0,509,508,0,0,38,0
12,0,0,0,0,507,508,0,0,38,0
13,0,0,0,0,508,507,0,0,38,0
14,0,0,0,0,508,506,0,0,38,0
15,0,0,0,0,508,507,0,0,39,0
0,0,0,0,0,510,507,0,0,38,0
1,0,0,0,0,509,506,0,0,38,0
2,0,0,0,0,507,507,0,0,38,0
3,0,0,0,0,509,506,0,0,38,0
4,0,0,0,0,507,507,0,0,38,0
5,0,0,0,0,509,508,0,0,38,0
6,0,0,0,0,507,508,0,0,38,0
7,0,0,0,0,509,507,0,0,39,0
8,0,0,0,0,510,507,0,0,38,0
9,0,0,0,0,509,509,0,0,38,0
10,0,0,0,0,509,510,0,327,38,0
11,0,0,0,0,512,510,0,636,38,0
12,0,0,0,0,508,510,0,975,38,0
13,0,0,0,0,511,509,0,1018,38,0
14,0,0,0,0,508,509,0,1018,38,0
15,0,0,0,0,509,508,0,1018,39,0
0,0,0,0,0,509,507,0,1018,38,0
1,0,0,0,0,508,507,0,1018,38,0
2,0,0,0,0,510,507,0,1018,38,0
3,0,0,0,0,508,507,0,1018,38,1
4,0,0,0,0,508,507,0,1018,38,0
5,0,0,0,0,508,508,0,1018,38,0
6,0,0,0,0,509,508,0,1018,38,0
7,0,0,0,0,511,509,0,1018,39,0
8,0,0,0,0,510,508,0,1018,38,0
9,0,0,0,0,511,508,0,1018,38,0
10,0,0,0,0,509,508,0,1018,38,0
11,0,0,0,0,509,508,0,1018,38,1
12,0,0,0,0,508,508,0,1018,38,0
13,0,0,0,0,507,505,0,1018,38,0
14,0,0,0,0,510,506,0,1018,38,0
15,0,0,0,0,509,505,0,1018,39,0
0,0,0,0,0,512,503,0,1018,38,0
1,0,0,0,0,510,504,0,1018,38,0
2,0,0,0,0,509,505,0,1018,38,0
3,0,0,0,0,511,506,0,1018,38,1
4,0,0,0,0,510,505,0,1018,38,1
5,0,0,0,0,508,505,0,1018,38,0
6,0,0,0,0,511,507,0,1018,38,0
7,0,0,0,0,507,507,0,1018,39,0
8,0,0,0,0,508,505,0,1018,38,0
9,0,0,0,0,508,507,0,1018,38,0
10,0,0,0,0,510,507,0,1018,38,0
11,0,0,0,0,511,506,0,1018,38,0
12,0,0,0,0,509,507,0,1018,38,1
13,0,0,0,0,510,509,0,1018,38,0
14,0,0,0,0,510,509,0,1018,38,0
15,0,0,0,0,507,508,0,1018,39,0
0,0,0,0,0,510,508,0,1018,38,0
1,0,0,0,0,507,506,0,1018,38,0
2,0,0,0,0,508,505,0,1018,38,0
3,0,0,0,0,511,505,0,1017,38,1
4,0,0,0,0,507,504,0,705,38,1
5,0,0,0,0,509,505,0,426,38,0
6,0,0,0,0,509,507,0,204,38,0
7,0,0,0,0,509,508,0,116,39,0
8,0,0,0,0,508,507,0,343,38,0
9,0,0,0,0,511,508,0,829,38,0
10,0,0,0,0,510,509,0,1018,38,0
11,0,0,0,0,509,507,0,1018,38,0
12,0,0,0,0,508,508,0,1018,38,1
13,0,0,0,0,507,508,0,1018,38,1
14,0,0,0,0,510,507,0,1018,38,1
15,0,0,0,0,509,507,0,1018,39,0
0,0,0,0,0,507,506,0,1018,38,0
1,0,0,0,0,509,507,0,1018,38,0
2,0,0,0,0,509,505,0,1018,38,0
3,0,0,0,0,510,504,0,1018,38,0
4,0,0,0,0,511,505,0,1018,38,1
5,0,0,0,0,510,507,0,1018,38,1
6,0,0,0,0,510,508,0,1018,38,1
7,0,0,0,0,508,508,0,1018,39,0
8,0,0,0,0,510,508,0,1018,38,0
9,0,0,0,0,511,509,0,1018,38,0
10,0,0,0,0,510,508,0,1018,38,0
11,0,0,0,0,510,510,0,1018,38,0
12,0,0,0,0,509,509,0,1018,38,1
13,0,0,0,0,510,509,0,1018,38,1
14,0,0,0,0,509,509,0,1018,38,1
15,0,0,0,0,508,508,0,1018,39,0
0,0,0,0,0,508,508,0,1018,38,0
1,0,0,0,0,508,508,0,1018,38,0
2,0,0,0,0,511,509,0,1018,38,0
3,0,0,0,0,511,511,0,1018,38,0
4,0,0,0,0,509,510,0,1018,38,1
5,0,0,0,0,508,508,0,1018,38,1
6,0,0,0,0,509,507,0,1018,38,1
7,0,0,0,0,509,507,0,1018,39,0
8,0,0,0,0,511,507,0,1018,38,0
9,0,0,0,0,508,508,0,1018,38,0
10,0,0,0,0,511,510,0,1018,38,0
11,0,0,0,0,509,508,0,1018,38,0
12,0,0,0,0,509,510,0,1018,38,1
13,0,0,0,0,510,509,0,1018,38,1
14,0,0,0,0,509,508,0,1018,38,1
15,0,0,0,0,508,509,0,1018,39,1
0,0,0,0,0,507,508,0,1018,38,0
1,0,0,0,0,508,509,0,1018,38,0
2,0,0,0,0,511,508,0,1018,38,0
3,0,0,0,0,509,508,0,1018,38,0
4,0,0,0,0,509,508,0,1018,38,0
5,0,0,0,0,510,507,0,1018,38,1
6,0,0,0,0,510,508,0,1018,38,1
7,0,0,0,0,509,509,0,1018,39,1
8,0,0,0,0,508,508,0,1018,38,0
9,0,0,0,0,509,508,0,1018,38,0
10,0,0,0,0,509,509,0,1018,38,0
11,0,0,0,0,511,507,0,1018,38,0
12,0,0,0,0,512,507,0,1018,38,0
13,0,0,0,0,509,508,0,1018,38,1
14,0,0,0,0,511,510,0,1018,38,1
15,0,0,0,0,508,510,0,1018,39,1
0,0,0,0,0,509,510,0,1018,38,1
1,0,0,0,0,509,508,0,1017,38,0
2,0,0,0,0,508,508,0,1018,38,0
3,0,0,0,0,508,508,0,1018,38,0
4,0,0,0,0,507,508,0,1018,38,0
5,0,0,0,0,508,507,0,1018,38,0
6,0,0,0,0,510,508,0,1018,38,1
7,0,0,0,0,507,509,0,1018,39,1
8,0,0,0,0,507,508,0,1018,38,1
9,0,0,0,0,509,507,0,1018,38,0
10,0,0,0,0,509,507,0,1018,38,0
11,0,0,0,0,511,507,0,1018,38,0
12,0,0,0,0,508,507,0,1018,38,0
13,0,0,0,0,511,508,0,1018,38,0
14,0,0,0,0,510,508,0,1018,38,1
15,0,0,0,0,509,508,0,1018,39,1
0,0,0,0,0,510,507,0,1018,38,1
1,0,0,0,0,508,508,0,1018,38,0
2,0,0,0,0,511,510,0,1018,38,0
3,0,0,0,0,508,510,0,1018,38,0
4,0,0,0,0,510,509,0,1018,38,0
5,0,0,0,0,509,509,0,1018,38,0
6,0,0,0,0,507,508,0,1018,38,1
7,0,0,0,0,508,508,0,750,39,1
8,0,0,0,0,512,508,0,491,38,1
9,0,0,0,0,510,508,0,328,38,0
10,0,0,0,0,510,508,0,324,38,0
11,0,0,0,0,508,509,0,217,38,0
12,0,0,0,0,511,509,0,178,38,0
13,0,0,0,0,510,508,0,195,38,0
14,0,0,0,0,509,507,0,115,38,1
15,0,0,0,0,510,508,0,47,39,1
0,0,0,0,0,508,508,0,85,38,1
1,0,0,0,0,508,509,0,168,38,0
2,0,0,0,0,510,508,0,326,38,0
3,0,0,0,0,509,507,0,465,38,0
4,0,0,0,0,509,507,0,558,38,0
5,0,0,0,0,509,507,0,651,38,0
6,0,0,0,0,510,507,0,845,38,1
7,0,0,0,0,508,506,0,993,39,0
8,0,0,0,0,511,508,0,1018,38,1
9,0,0,0,0,510,508,0,1018,38,0
10,0,0,0,0,509,509,0,1018,38,0
11,0,0,0,0,510,509,0,1018,38,0
12,0,0,0,0,509,508,0,1018,38,0
13,0,0,0,0,508,508,0,1018,38,0
14,0,0,0,0,510,507,0,1018,38,0
15,0,0,0,0,509,507,0,1018,39,0
0,0,0,0,0,511,508,0,1018,38,1
1,0,0,0,0,512,507,0,1018,38,0
2,0,0,0,0,508,507,0,1018,38,0
3,0,0,0,0,511,507,0,1018,38,0
4,0,0,0,0,508,509,0,1018,38,0
5,0,0,0,0,508,510,0,1018,38,0
6,0,0,0,0,510,509,0,1018,38,0
7,0,0,0,0,511,507,0,1018,39,0
8,0,0,0,0,511,507,0,1018,38,0
9,0,0,0,0,509,507,0,1018,38,1
10,0,0,0,0,508,507,0,1018,38,0
11,0,0,0,0,511,506,0,1018,38,0
12,0,0,0,0,508,507,0,1018,38,0
13,0,0,0,0,510,507,0,1017,38,0
14,0,0,0,0,509,508,0,1018,38,0
15,0,0,0,0,511,508,0,1018,39,0
0,0,0,0,0,510,508,0,1018,38,0
1,0,0,0,0,510,508,0,1018,38,1
2,0,0,0,0,510,509,0,1018,38,0
3,0,0,0,0,508,509,0,1018,38,0
4,0,0,0,0,509,507,0,1018,38,0
5,0,0,0,0,507,507,0,1018,38,0
6,0,0,0,0,508,505,0,1018,38,0
7,0,0,0,0,509,504,0,1018,39,0
8,0,0,0,0,508,505,0,1018,38,0
9,0,0,0,0,509,504,0,1018,38,0
10,0,0,0,0,508,504,0,1018,38,0
11,0,0,0,0,509,505,0,1018,38,0
12,0,0,0,0,510,505,0,1018,38,0
13,0,0,0,0,507,506,0,1018,38,0
14,0,0,0,0,507,507,0,1018,38,0
15,0,0,0,0,509,505,0,1018,39,0
0,0,0,0,0,511,506,0,1018,38,0
1,0,0,0,0,512,508,0,1018,38,0
2,0,0,0,0,508,508,0,1018,38,0
3,0,0,0,0,510,508,0,1018,38,0
4,0,0,0,0,506,506,0,1018,38,0
5,0,0,0,0,508,507,0,1018,38,0
6,0,0,0,0,511,507,0,1018,38,0
7,0,0,0,0,507,509,0,1018,39,0
8,0,0,0,0,509,508,0,1018,38,0
9,0,0,0,0,509,506,0,1018,38,0
10,0,0,0,0,511,507,0,1018,38,0
11,0,0,0,0,510,509,0,1018,38,0
12,0,0,0,0,510,507,0,1018,38,0
13,0,0,0,0,512,506,0,1018,38,0
14,0,0,0,0,508,507,0,1017,38,0
15,0,0,0,0,507,508,0,556,39,0
0,0,0,0,0,511,508,0,336,38,0
1,0,0,0,0,507,508,0,0,38,0
2,0,0,0,0,509,508,0,0,38,0
3,0,0,0,0,508,506,0,0,38,0
4,0,0,0,0,509,507,0,0,38,0
5,0,0,0,0,509,508,0,0,38,0
6,0,0,0,0,511,507,0,0,38,0
7,0,0,0,0,510,508,0,0,39,0
8,0,0,0,0,510,508,0,0,38,0
9,0,0,0,0,509,508,0,0,38,0
10,0,0,0,0,510,506,0,0,38,0
11,0,0,0,0,509,508,0,0,38,0
12,0,0,0,0,510,507,0,0,38,0
13,0,0,0,0,510,508,0,0,38,0
14,0,0,0,0,509,509,0,164,38,0
15,0,0,0,0,508,506,0,230,39,0
0,0,0,0,0,508,505,0,107,38,0
1,0,0,0,0,510,505,0,0,38,0
2,0,0,0,0,509,507,0,0,38,0
3,0,0,0,0,509,508,0,0,38,1
4,0,0,0,0,509,509,0,0,38,0
5,0,0,0,0,507,509,0,0,38,0
6,0,0,0,0,507,509,0,0,38,0
7,0,0,0,0,510,510,0,0,39,0
8,0,0,0,0,510,510,0,0,38,0
9,0,0,0,0,510,510,0,0,38,0
10,0,0,0,0,507,510,0,0,38,0
11,0,0,0,0,509,509,0,0,38,1
12,0,0,0,0,508,507,0,0,38,0
13,0,0,0,0,509,509,0,0,38,0
14,0,0,0,0,511,509,0,0,38,0
15,0,0,0,0,510,510,0,0,39,0
0,0,0,0,0,509,508,0,0,38,0
1,0,0,0,0,507,508,0,0,38,0
2,0,0,0,0,509,509,0,0,38,0
3,0,0,0,0,509,508,0,0,38,0
4,0,0,0,0,510,509,0,0,38,1
5,0,0,0,0,510,508,0,0,38,0
6,0,0,0,0,509,507,0,0,38,0
7,0,0,0,0,511,508,0,0,39,0
8,0,0,0,0,511,509,0,0,38,0
9,0,0,0,0,508,508,0,0,38,0
10,0,0,0,0,509,508,0,0,38,0
11,0,0,0,0,510,508,0,0,38,0
12,0,0,0,0,506,508,0,0,38,1
13,0,0,0,0,509,507,0,0,38,0
14,0,0,0,0,508,505,0,0,38,0
15,0,0,0,0,508,506,0,0,39,0
0,0,0,0,0,511,505,0,0,38,0
1,0,0,0,0,510,505,0,0,38,0
2,0,0,0,0,510,506,0,0,38,0
3,0,0,0,0,509,506,0,0,38,0
4,0,0,0,0,509,506,0,0,38,1
5,0,0,0,0,508,507,0,0,38,1
6,0,0,0,0,510,506,0,0,38,0
7,0,0,0,0,509,508,0,0,39,0
8,0,0,0,0,507,506,0,0,38,0
9,0,0,0,0,508,508,0,0,38,0
10,0,0,0,0,509,508,0,0,38,0
11,0,0,0,0,510,508,0,0,38,0
12,0,0,0,0,508,509,0,0,38,1
13,0,0,0,0,510,510,0,0,38,1
14,0,0,0,0,512,511,0,0,38,1
15,0,0,0,0,509,512,0,0,39,0
0,0,0,0,0,512,513,0,0,38,0
1,0,0,0,0,509,511,0,0,38,0
2,0,0,0,0,508,511,0,0,38,0
3,0,0,0,0,509,510,0,0,38,0
4,0,0,0,0,508,509,0,0,38,1
5,0,0,0,0,508,510,0,0,38,1
6,0,0,0,0,510,510,0,0,38,1
7,0,0,0,0,507,510,0,0,39,0
8,0,0,0,0,510,509,0,0,38,0
9,0,0,0,0,508,510,0,0,38,0
10,0,0,0,0,507,509,0,0,38,0
11,0,0,0,0,510,508,0,0,38,0
12,0,0,0,0,509,509,0,0,38,0
13,0,0,0,0,510,509,0,0,38,1
14,0,0,0,0,509,508,0,0,38,1
15,0,0,0,0,508,506,0,0,39,0
0,0,0,0,0,510,507,0,0,38,0
1,0,0,0,0,509,505,0,0,38,0
2,0,0,0,0,511,507,0,0,38,0
3,0,0,0,0,507,507,0,0,38,0
4,0,0,0,0,509,508,0,0,38,0
5,0,0,0,0,511,506,0,0,38,1
6,0,0,0,0,510,507,0,0,38,1
7,0,0,0,0,508,508,0,0,39,1
8,0,0,0,0,508,507,0,0,38,0
9,0,0,0,0,507,508,0,0,38,0
10,0,0,0,0,508,507,0,0,38,0
11,0,0,0,0,507,507,0,0,38,0
12,0,0,0,0,509,508,0,0,38,0
13,0,0,0,0,508,509,0,0,38,1
14,0,0,0,0,510,510,0,0,38,1
15,0,0,0,0,508,510,0,0,39,0
0,0,0,0,0,509,508,0,0,38,0
1,0,0,0,0,508,509,0,0,38,0
2,0,0,0,0,511,511,0,0,38,0
3,0,0,0,0,509,510,0,0,38,0
4,0,0,0,0,510,508,0,0,38,0
5,0,0,0,0,508,508,0,0,38,1
6,0,0,0,0,510,509,0,0,38,1
7,0,0,0,0,511,507,0,0,39,1
8,0,0,0,0,508,509,0,0,38,1
9,0,0,0,0,510,509,0,0,38,0
10,0,0,0,0,506,508,0,0,38,0
11,0,0,0,0,509,508,0,0,38,0
12,0,0,0,0,508,507,0,0,38,0
13,0,0,0,0,510,506,0,0,38,1
14,0,0,0,0,508,506,0,0,38,1
15,0,0,0,0,507,507,0,0,39,1
0,0,0,0,0,508,507,0,0,38,1
1,0,0,0,0,509,506,0,0,38,0
2,0,0,0,0,509,506,0,0,38,0
3,0,0,0,0,510,507,0,0,38,0
4,0,0,0,0,509,508,0,0,38,0
5,0,0,0,0,510,508,0,0,38,0
6,0,0,0,0,508,508,0,0,38,1
7,0,0,0,0,509,507,0,0,39,1
8,0,0,0,0,511,508,0,0,38,1
9,0,0,0,0,508,510,0,0,38,0
10,0,0,0,0,507,508,0,0,38,0
11,0,0,0,0,510,508,0,0,38,0
12,0,0,0,0,510,507,0,0,38,0
13,0,0,0,0,509,506,0,0,38,0
14,0,0,0,0,509,507,0,0,38,1
15,0,0,0,0,511,507,0,0,39,1
0,0,0,0,0,508,507,0,0,38,1
1,0,0,0,0,510,507,0,0,38,0
2,0,0,0,0,511,505,0,0,38,0
3,0,0,0,0,508,506,0,0,38,0
4,0,0,0,0,508,507,0,0,38,0
5,0,0,0,0,507,506,0,0,38,0
6,0,0,0,0,510,507,0,0,38,1
7,0,0,0,0,510,507,0,0,39,1
8,0,0,0,0,508,507,0,0,38,1
9,0,0,0,0,510,507,0,0,38,0
10,0,0,0,0,510,507,0,0,38,0
11,0,0,0,0,508,508,0,0,38,0
12,0,0,0,0,508,508,0,0,38,0
13,0,0,0,0,509,509,0,0,38,0
14,0,0,0,0,508,509,0,0,38,1
15,0,0,0,0,507,508,0,0,39,1
0,0,0,0,0,509,507,0,0,38,1
1,0,0,0,0,511,507,0,0,38,0
2,0,0,0,0,510,506,0,0,38,0
3,0,0,0,0,509,505,0,0,38,0
4,0,0,0,0,508,506,0,0,38,0
5,0,0,0,0,510,507,0,0,38,0
6,0,0,0,0,510,508,0,0,38,0
7,0,0,0,0,511,507,0,0,39,0
8,0,0,0,0,510,506,0,0,38,1
9,0,0,0,0,510,505,0,0,38,1
10,0,0,0,0,510,505,0,0,38,0
11,0,0,0,0,510,505,0,0,38,0
12,0,0,0,0,507,507,0,0,38,0
13,0,0,0,0,508,508,0,0,38,0
14,0,0,0,0,508,508,0,0,38,0
15,0,0,0,0,509,508,0,0,39,0
0,0,0,0,0,509,508,0,0,38,1
1,0,0,0,0,510,506,0,0,38,1
2,0,0,0,0,508,506,0,0,38,0
3,0,0,0,0,506,506,0,0,38,0
4,0,0,0,0,508,507,0,0,38,0
5,0,0,0,0,509,509,0,0,38,0
6,0,0,0,0,510,509,0,0,38,0
7,0,0,0,0,508,507,0,0,39,0
8,0,0,0,0,507,506,0,0,38,1
9,0,0,0,0,509,507,0,0,38,1
10,0,0,0,0,510,506,0,0,38,0
11,0,0,0,0,509,507,0,0,38,0
12,0,0,0,0,510,509,0,0,38,0
13,0,0,0,0,509,509,0,0,38,0
14,0,0,0,0,508,508,0,0,38,0
15,0,0,0,0,508,508,0,0,39,0
0,0,0,0,0,510,508,0,0,38,0
1,0,0,0,0,508,510,0,0,38,1
2,0,0,0,0,508,510,0,0,38,0
3,0,0,0,0,511,508,0,0,38,0
4,0,0,0,0,509,509,0,0,38,0
5,0,0,0,0,509,510,0,0,38,0
6,0,0,0,0,511,509,0,0,38,0
7,0,0,0,0,509,508,0,0,39,0
8,0,0,0,0,508,509,0,0,38,0
9,0,0,0,0,509,508,0,0,38,1
10,0,0,0,0,506,509,0,0,38,0
11,0,0,0,0,510,508,0,0,38,0
12,0,0,0,0,510,506,0,0,38,0
13,0,0,0,0,506,505,0,0,38,0
14,0,0,0,0,507,505,0,0,38,0
15,0,0,0,0,510,505,0,0,39,0
0,0,0,0,0,510,506,0,0,38,0
1,0,0,0,0,510,506,0,0,38,0
2,0,0,0,0,508,506,0,0,38,0
3,0,0,0,0,509,506,0,0,38,0
4,0,0,0,0,507,507,0,0,38,0
5,0,0,0,0,507,508,0,0,38,0
6,0,0,0,0,511,508,0,0,38,0
7,0,0,0,0,510,506,0,0,39,0
8,0,0,0,0,510,507,0,0,38,0
9,0,0,0,0,509,508,0,0,38,0
10,0,0,0,0,507,508,0,0,38,0
11,0,0,0,0,507,507,0,0,38,0
12,0,0,0,0,508,508,0,0,38,0
13,0,0,0,0,510,508,0,0,38,0
14,0,0,0,0,509,508,0,0,38,0
15,0,0,0,0,509,509,0,0,39,0
0,0,0,0,0,508,507,0,0,38,0
1,0,0,0,0,510,507,0,0,38,0
2,0,0,0,0,511,507,0,0,38,0
3,0,0,0,0,508,509,0,0,38,0
4,0,0,0,0,507,509,0,0,38,0
5,0,0,0,0,508,508,0,0,38,0
6,0,0,0,0,507,509,0,0,38,0
7,0,0,0,0,508,509,0,0,39,0
8,0,0,0,0,509,508,0,0,38,0
9,0,0,0,0,510,508,0,0,38,0
10,0,0,0,0,508,508,0,0,38,0
11,0,0,0,0,508,509,0,0,38,0
12,0,0,0,0,508,509,0,0,38,0
13,0,0,0,0,507,510,0,0,38,0
14,0,0,0,0,505,509,0,0,38,0
15,0,0,0,0,508,511,0,0,39,0
0,0,0,0,0,508,510,0,0,38,0
1,0,0,0,0,508,508,0,0,38,0
2,0,0,0,0,510,510,0,0,38,0
3,0,0,0,0,508,509,0,335,38,0
4,0,0,0,0,510,509,0,770,38,0
5,0,0,0,0,508,508,0,1018,38,0
6,0,0,0,0,512,509,0,1018,39,0
7,0,0,0,0,510,510,0,1018,39,0
8,0,0,0,0,510,510,0,1018,38,0
9,0,0,0,0,509,509,0,1018,38,0
10,0,0,0,0,510,510,0,1018,38,0
11,0,0,0,0,512,511,0,1018,38,0
12,0,0,0,0,509,511,0,1018,38,1
13,0,0,0,0,509,512,0,1018,38,0
14,0,0,0,0,509,510,0,1018,38,0
15,0,0,0,0,508,509,0,1018,39,0
0,0,0,0,0,508,509,0,1018,38,0
1,0,0,0,0,509,508,0,1018,38,0
2,0,0,0,0,511,508,0,1018,38,0
3,0,0,0,0,509,508,0,1018,38,0
4,0,0,0,0,511,509,0,1018,38,1
5,0,0,0,0,511,508,0,1018,38,0
6,0,0,0,0,508,507,0,1018,38,0
7,0,0,0,0,510,508,0,1018,39,0
8,0,0,0,0,510,507,0,1018,38,0
9,0,0,0,0,509,507,0,1018,38,0
10,0,0,0,0,510,508,0,1018,38,0
11,0,0,0,0,509,509,0,1018,38,0
12,0,0,0,0,509,508,0,1018,38,1
13,0,0,0,0,512,507,0,1018,38,0
14,0,0,0,0,512,507,0,1018,38,0
15,0,0,0,0,512,506,0,1018,39,0
0,0,0,0,0,511,508,0,1018,38,0
1,0,0,0,0,507,509,0,1018,38,0
2,0,0,0,0,509,509,0,1018,38,0
3,0,0,0,0,509,510,0,1018,38,0
4,0,0,0,0,508,510,0,1018,38,0
5,0,0,0,0,511,509,0,1018,38,1
6,0,0,0,0,510,508,0,1018,38,1
7,0,0,0,0,511,508,0,1018,39,0
8,0,0,0,0,508,507,0,1018,38,0
9,0,0,0,0,509,505,0,1017,38,0
10,0,0,0,0,508,506,0,1018,38,0
11,0,0,0,0,508,505,0,1018,38,0
12,0,0,0,0,510,505,0,1018,38,0
13,0,0,0,0,509,507,0,1018,38,1
14,0,0,0,0,508,507,0,1018,38,1
15,0,0,0,0,508,508,0,1018,39,0
0,0,0,0,0,505,508,0,1018,38,0
1,0,0,0,0,508,508,0,1018,38,0
2,0,0,0,0,507,506,0,1018,38,0
3,0,0,0,0,510,507,0,1018,38,0
4,0,0,0,0,508,506,0,1018,38,1
5,0,0,0,0,509,507,0,1018,38,1
6,0,0,0,0,507,507,0,1018,38,1
7,0,0,0,0,507,506,0,1018,39,0
8,0,0,0,0,510,506,0,1018,38,0
9,0,0,0,0,510,507,0,1018,38,0
10,0,0,0,0,508,507,0,1018,38,0
11,0,0,0,0,512,508,0,1018,38,0
12,0,0,0,0,508,507,0,1018,38,0
13,0,0,0,0,509,506,0,1018,38,1
14,0,0,0,0,509,506,0,1018,38,1
15,0,0,0,0,507,507,0,1017,39,0
0,0,0,0,0,508,506,0,643,38,0
1,0,0,0,0,507,507,0,379,38,0
2,0,0,0,0,507,507,0,285,38,0
3,0,0,0,0,509,507,0,189,38,0
4,0,0,0,0,510,509,0,201,38,0
5,0,0,0,0,510,510,0,382,38,1
6,0,0,0,0,508,508,0,658,38,1
7,0,0,0,0,511,509,0,952,39,0
8,0,0,0,0,509,508,0,1018,38,0
9,0,0,0,0,510,509,0,1018,38,0
10,0,0,0,0,509,509,0,1018,38,0
11,0,0,0,0,510,510,0,1018,38,0
12,0,0,0,0,511,510,0,1018,38,0
13,0,0,0,0,508,509,0,1018,38,1
14,0,0,0,0,509,508,0,1018,38,1
15,0,0,0,0,506,508,0,1018,39,1
0,0,0,0,0,512,508,0,1018,38,0
1,0,0,0,0,511,507,0,831,38,0
2,0,0,0,0,507,508,0,512,38,0
3,0,0,0,0,509,509,0,182,38,0
4,0,0,0,0,509,509,0,0,38,0
5,0,0,0,0,508,508,0,0,38,0
6,0,0,0,0,509,508,0,0,38,1
7,0,0,0,0,508,509,0,0,39,1
8,0,0,0,0,511,509,0,0,38,0
9,0,0,0,0,508,508,0,0,38,0
10,0,0,0,0,510,508,0,0,38,0
11,0,0,0,0,510,506,0,0,38,0
12,0,0,0,0,509,507,0,0,38,0
13,0,0,0,0,508,507,0,346,38,0
14,0,0,0,0,508,507,0,495,38,1
15,0,0,0,0,509,508,0,579,39,1
0,0,0,0,0,507,508,0,699,38,1
1,0,0,0,0,510,508,0,968,38,0
2,0,0,0,0,508,508,0,1017,38,0
3,0,0,0,0,510,509,0,1018,38,0
4,0,0,0,0,508,508,0,1018,38,0
5,0,0,0,0,510,507,0,1018,38,0
6,0,0,0,0,509,507,0,1018,38,1
7,0,0,0,0,510,506,0,1018,39,1
8,0,0,0,0,508,506,0,1018,38,1
9,0,0,0,0,509,505,0,1018,38,0
10,0,0,0,0,511,505,0,1018,38,0
11,0,0,0,0,508,506,0,1018,38,0
12,0,0,0,0,512,508,0,1018,38,0
13,0,0,0,0,511,507,0,1018,38,0
14,0,0,0,0,509,506,0,1018,38,1
15,0,0,0,0,510,505,0,1018,39,1
0,0,0,0,0,508,506,0,1018,38,1
1,0,0,0,0,509,506,0,1017,38,1
2,0,0,0,0,509,508,0,1018,38,0
3,0,0,0,0,512,508,0,1018,38,0
4,0,0,0,0,514,509,0,1018,38,0
5,0,0,0,0,509,509,0,1018,38,0
6,0,0,0,0,508,507,0,801,38,1
7,0,0,0,0,510,507,0,593,39,1
8,0,0,0,0,509,508,0,472,38,1
9,0,0,0,0,509,507,0,458,38,1
10,0,0,0,0,507,506,0,245,38,0
11,0,0,0,0,508,505,0,0,38,0
12,0,0,0,0,508,506,0,0,38,0
13,0,0,0,0,510,505,0,0,38,0
14,0,0,0,0,509,505,0,0,38,1
15,0,0,0,0,507,507,0,0,39,1
0,0,0,0,0,510,507,0,182,38,1
1,0,0,0,0,507,507,0,541,38,1
2,0,0,0,0,507,510,0,974,38,0
3,0,0,0,0,510,511,0,1018,38,0
4,0,0,0,0,509,511,0,1018,38,0
5,0,0,0,0,511,512,0,1018,38,0
6,0,0,0,0,510,511,0,1018,38,0
7,0,0,0,0,510,511,0,1018,39,0
8,0,0,0,0,511,511,0,1018,38,1
9,0,0,0,0,508,510,0,1018,38,1
10,0,0,0,0,508,509,0,1018,38,0
11,0,0,0,0,511,507,0,1018,38,0
12,0,0,0,0,510,508,0,1018,38,0
13,0,0,0,0,510,507,0,1018,38,0
14,0,0,0,0,511,508,0,1018,38,0
15,0,0,0,0,509,509,0,1018,39,0
0,0,0,0,0,508,510,0,1018,38,1
1,0,0,0,0,508,509,0,1018,38,1
2,0,0,0,0,508,510,0,1018,38,0
3,0,0,0,0,508,510,0,1018,38,0
4,0,0,0,0,508,511,0,1018,38,0
5,0,0,0,0,510,510,0,1018,38,0
6,0,0,0,0,509,508,0,1018,38,0
7,0,0,0,0,512,507,0,1018,39,0
8,0,0,0,0,508,508,0,1018,38,0
9,0,0,0,0,508,508,0,1018,38,1
10,0,0,0,0,506,508,0,1018,38,0
11,0,0,0,0,507,511,0,1018,38,0
12,0,0,0,0,510,511,0,1018,38,0
13,0,0,0,0,511,512,0,1018,38,0
14,0,0,0,0,510,511,0,1018,38,0
15,0,0,0,0,510,511,0,1018,39,0
0,0,0,0,0,509,511,0,1018,38,0
1,0,0,0,0,509,511,0,1018,38,1
2,0,0,0,0,509,510,0,1018,38,0
3,0,0,0,0,510,509,0,1018,38,0
4,0,0,0,0,511,508,0,1018,38,0
5,0,0,0,0,509,510,0,1018,38,0
6,0,0,0,0,510,510,0,1018,38,0
7,0,0,0,0,510,509,0,1018,39,0
8,0,0,0,0,509,510,0,1018,38,0
9,0,0,0,0,506,509,0,1018,38,0
10,0,0,0,0,510,508,0,1018,38,0
11,0,0,0,0,509,508,0,1018,38,0
12,0,0,0,0,509,508,0,1018,38,0
13,0,0,0,0,512,509,0,1018,38,0
14,0,0,0,0,508,510,0,1018,38,0
15,0,0,0,0,509,510,0,1018,39,0
0,0,0,0,0,511,509,0,1018,38,0
1,0,0,0,0,508,510,0,1018,38,0
2,0,0,0,0,510,510,0,1018,38,0
3,0,0,0,0,508,510,0,1018,38,0
4,0,0,0,0,509,510,0,1018,38,0
5,0,0,0,0,510,511,0,1018,38,0
6,0,0,0,0,509,512,0,1018,38,0
7,0,0,0,0,510,512,0,1018,39,0
8,0,0,0,0,508,513,0,1018,38,0
9,0,0,0,0,508,514,0,1018,38,0
10,0,0,0,0,510,512,0,1018,38,0
11,0,0,0,0,507,512,0,1018,38,1
12,0,0,0,0,510,511,0,1018,38,0
13,0,0,0,0,508,510,0,1018,38,0
14,0,0,0,0,507,509,0,1018,38,0
15,0,0,0,0,508,511,0,1018,39,0
0,0,0,0,0,510,510,0,1018,38,0
1,0,0,0,0,509,509,0,1018,38,0
2,0,0,0,0,510,508,0,1018,38,0
3,0,0,0,0,510,509,0,1018,38,0
4,0,0,0,0,510,509,0,1018,38,0
5,0,0,0,0,508,508,0,1018,38,0
6,0,0,0,0,510,509,0,1018,38,0
7,0,0,0,0,509,508,0,1018,39,0
8,0,0,0,0,509,509,0,1018,38,0
9,0,0,0,0,511,507,0,1017,38,0
10,0,0,0,0,508,507,0,1018,38,0
11,0,0,0,0,508,507,0,1018,38,1
12,0,0,0,0,508,507,0,1018,38,0
13,0,0,0,0,509,508,0,1018,38,0
14,0,0,0,0,510,509,0,1018,38,0
15,0,0,0,0,509,507,0,1018,39,0
0,0,0,0,0,507,507,0,1018,38,0
1,0,0,0,0,511,506,0,1018,38,0
2,0,0,0,0,509,508,0,1018,38,0
3,0,0,0,0,508,509,0,1018,38,0
4,0,0,0,0,508,508,0,1018,38,0
5,0,0,0,0,507,508,0,1018,38,0
6,0,0,0,0,510,507,0,1018,38,0
7,0,0,0,0,510,506,0,1018,39,0
8,0,0,0,0,510,506,0,1018,38,0
9,0,0,0,0,509,506,0,1018,38,0
10,0,0,0,0,509,505,0,1018,38,0
11,0,0,0,0,510,506,0,1018,38,0
12,0,0,0,0,511,503,0,1018,38,0
13,0,0,0,0,510,505,0,1018,38,0
14,0,0,0,0,512,505,0,1018,38,0
15,0,0,0,0,510,504,0,1018,39,0
0,0,0,0,0,511,504,0,1018,38,0
1,0,0,0,0,508,504,0,1018,38,0
2,0,0,0,0,510,504,0,1018,38,0
3,0,0,0,0,509,504,0,1018,38,0
4,0,0,0,0,509,503,0,1018,38,1
5,0,0,0,0,512,503,0,1018,38,0
6,0,0,0,0,509,503,0,1018,38,0
7,0,0,0,0,508,504,0,1018,39,0
8,0,0,0,0,508,506,0,1018,38,0
9,0,0,0,0,508,506,0,174,38,0
10,0,0,0,0,509,506,0,0,38,0
11,0,0,0,0,510,507,0,0,38,0
12,0,0,0,0,507,505,0,0,38,0
13,0,0,0,0,505,506,0,0,38,0
14,0,0,0,0,509,507,0,0,38,0
15,0,0,0,0,510,508,0,0,39,0
0,0,0,0,0,508,508,0,0,38,0
1,0,0,0,0,508,508,0,0,38,0
2,0,0,0,0,508,508,0,0,38,0
3,0,0,0,0,510,507,0,0,38,0
4,0,0,0,0,509,507,0,0,38,0
5,0,0,0,0,508,506,0,0,38,0
6,0,0,0,0,511,506,0,0,38,0
7,0,0,0,0,510,507,0,0,39,0
8,0,0,0,0,509,509,0,0,38,0
9,0,0,0,0,508,510,0,0,38,0
10,0,0,0,0,509,509,0,0,38,0
11,0,0,0,0,511,509,0,0,38,0
12,0,0,0,0,507,510,0,0,38,0
13,0,0,0,0,508,507,0,0,38,1
14,0,0,0,0,509,506,0,0,38,1
15,0,0,0,0,508,505,0,0,39,0
0,0,0,0,0,510,507,0,0,38,0
1,0,0,0,0,509,509,0,0,38,0
2,0,0,0,0,510,510,0,0,38,0
3,0,0,0,0,510,508,0,0,38,0
4,0,0,0,0,510,509,0,0,38,0
5,0,0,0,0,511,509,0,0,38,0
6,0,0,0,0,508,510,0,0,38,1
7,0,0,0,0,510,508,0,0,39,0
8,0,0,0,0,509,507,0,0,38,0
9,0,0,0,0,507,507,0,0,38,0
10,0,0,0,0,508,507,0,0,38,0
11,0,0,0,0,508,507,0,0,38,0
12,0,0,0,0,507,508,0,0,38,0
13,0,0,0,0,509,507,0,0,38,1
14,0,0,0,0,510,506,0,0,38,1
15,0,0,0,0,510,508,0,0,39,1
0,0,0,0,0,506,510,0,0,38,0
1,0,0,0,0,508,510,0,0,38,0
2,0,0,0,0,509,509,0,0,38,0
3,0,0,0,0,510,508,0,0,38,0
4,0,0,0,0,511,508,0,0,38,0
5,0,0,0,0,509,506,0,0,38,0
6,0,0,0,0,509,507,0,0,38,1
7,0,0,0,0,508,507,0,0,39,0
8,0,0,0,0,511,506,0,0,38,0
9,0,0,0,0,512,508,0,0,38,0
10,0,0,0,0,507,509,0,0,38,0
11,0,0,0,0,510,510,0,0,38,0
12,0,0,0,0,509,510,0,0,38,0
13,0,0,0,0,510,508,0,0,38,0
14,0,0,0,0,508,508,0,0,38,1
15,0,0,0,0,505,508,0,0,39,1
0,0,0,0,0,508,508,0,0,38,0
1,0,0,0,0,508,508,0,0,38,0
2,0,0,0,0,508,508,0,0,38,0
3,0,0,0,0,511,508,0,0,38,0
4,0,0,0,0,509,507,0,0,38,0
5,0,0,0,0,511,509,0,0,38,1
6,0,0,0,0,508,508,0,0,38,1
7,0,0,0,0,507,511,0,0,39,1
8,0,0,0,0,510,509,0,0,38,1
9,0,0,0,0,507,508,0,0,38,0
10,0,0,0,0,508,510,0,0,38,0
11,0,0,0,0,507,508,0,0,38,0
12,0,0,0,0,508,509,0,0,38,0
13,0,0,0,0,508,508,0,0,38,1
14,0,0,0,0,508,508,0,0,38,1
15,0,0,0,0,508,509,0,0,39,1
0,0,0,0,0,508,508,0,0,38,1
1,0,0,0,0,510,508,0,0,38,1
2,0,0,0,0,510,507,0,0,38,0
3,0,0,0,0,509,507,0,0,38,0
4,0,0,0,0,509,506,0,0,38,0
5,0,0,0,0,508,507,0,0,38,0
6,0,0,0,0,510,507,0,0,38,1
7,0,0,0,0,511,507,0,0,39,1
8,0,0,0,0,506,507,0,0,38,1
9,0,0,0,0,508,508,0,0,38,0
10,0,0,0,0,509,509,0,0,38,0
11,0,0,0,0,512,510,0,0,38,0
12,0,0,0,0,509,509,0,0,38,0
13,0,0,0,0,508,509,0,0,38,0
14,0,0,0,0,508,508,0,0,38,1
15,0,0,0,0,510,509,0,0,39,1
0,0,0,0,0,509,507,0,0,38,1
1,0,0,0,0,511,505,0,0,38,1
2,0,0,0,0,508,504,0,0,38,0
3,0,0,0,0,511,504,0,0,38,0
4,0,0,0,0,510,504,0,0,38,0
5,0,0,0,0,510,503,0,0,38,0
6,0,0,0,0,511,504,0,0,38,1
7,0,0,0,0,506,504,0,0,39,1
8,0,0,0,0,510,504,0,0,38,1
9,0,0,0,0,508,504,0,0,38,1
10,0,0,0,0,508,505,0,0,38,0
11,0,0,0,0,511,505,0,0,38,0
12,0,0,0,0,507,503,0,0,38,0
13,0,0,0,0,508,504,0,0,38,0
14,0,0,0,0,509,504,0,0,38,1
15,0,0,0,0,507,504,0,0,39,1
0,0,0,0,0,510,505,0,0,38,1
1,0,0,0,0,508,506,0,0,38,1
2,0,0,0,0,510,506,0,0,38,0
3,0,0,0,0,506,506,0,0,38,0
4,0,0,0,0,510,508,0,0,38,0
5,0,0,0,0,510,506,0,0,38,0
6,0,0,0,0,507,507,0,0,38,0
7,0,0,0,0,508,508,0,0,39,1
8,0,0,0,0,511,508,0,0,38,1
9,0,0,0,0,512,508,0,0,38,1
10,0,0,0,0,511,508,0,0,38,0
11,0,0,0,0,509,508,0,0,38,0
12,0,0,0,0,508,508,0,0,38,0
13,0,0,0,0,510,508,0,0,38,0
14,0,0,0,0,507,507,0,0,38,0
15,0,0,0,0,510,506,0,0,39,0
0,0,0,0,0,508,508,0,0,38,1
1,0,0,0,0,509,509,0,0,38,1
2,0,0,0,0,508,508,0,0,38,0
3,0,0,0,0,510,508,0,0,38,0
4,0,0,0,0,511,507,0,0,38,0
5,0,0,0,0,510,507,0,0,38,0
6,0,0,0,0,508,507,0,0,38,0
7,0,0,0,0,507,505,0,0,39,0
8,0,0,0,0,510,504,0,0,38,0
9,0,0,0,0,510,506,0,0,38,1
10,0,0,0,0,508,507,0,0,38,0
11,0,0,0,0,510,507,0,0,38,0
12,0,0,0,0,508,508,0,0,38,0
13,0,0,0,0,508,507,0,0,38,0
14,0,0,0,0,511,507,0,0,38,0
15,0,0,0,0,508,507,0,0,39,0
0,0,0,0,0,508,507,0,0,38,0
1,0,0,0,0,509,507,0,0,38,1
2,0,0,0,0,507,508,0,0,38,0
3,0,0,0,0,508,508,0,0,38,0
4,0,0,0,0,508,508,0,0,38,0
5,0,0,0,0,508,508,0,0,38,0
6,0,0,0,0,509,509,0,0,38,0
7,0,0,0,0,509,509,0,0,39,0
8,0,0,0,0,510,509,0,0,38,0
9,0,0,0,0,507,509,0,0,38,1
10,0,0,0,0,507,509,0,0,38,1
11,0,0,0,0,510,507,0,0,38,0
12,0,0,0,0,508,508,0,0,38,0
13,0,0,0,0,508,510,0,0,38,0
14,0,0,0,0,508,509,0,0,38,0
15,0,0,0,0,509,509,0,0,39,0
0,0,0,0,0,509,508,0,0,38,0
1,0,0,0,0,508,507,0,0,38,0
2,0,0,0,0,509,507,0,0,38,0
3,0,0,0,0,507,507,0,0,38,1
4,0,0,0,0,509,507,0,0,38,0
5,0,0,0,0,508,507,0,0,38,0
6,0,0,0,0,508,508,0,0,38,0
7,0,0,0,0,510,508,0,0,39,0
8,0,0,0,0,510,508,0,0,38,0
9,0,0,0,0,510,508,0,0,38,0
10,0,0,0,0,511,509,0,0,38,0
11,0,0,0,0,509,510,0,0,38,1
12,0,0,0,0,510,509,0,0,38,0
13,0,0,0,0,506,508,0,388,38,0
14,0,0,0,0,510,508,0,896,38,0
15,0,0,0,0,509,508,0,1018,39,0
0,0,0,0,0,510,508,0,1018,38,0
1,0,0,0,0,510,509,0,1018,38,0
2,0,0,0,0,509,507,0,1018,38,0
3,0,0,0,0,511,507,0,1018,38,1
4,0,0,0,0,510,507,0,1018,38,0
5,0,0,0,0,510,508,0,1018,38,0
6,0,0,0,0,509,508,0,1018,38,0
7,0,0,0,0,509,509,0,1018,39,0
8,0,0,0,0,510,509,0,1018,38,0
9,0,0,0,0,507,509,0,1018,38,0
10,0,0,0,0,509,508,0,1018,38,0
11,0,0,0,0,510,506,0,1018,38,0
12,0,0,0,0,510,506,0,1018,38,0
13,0,0,0,0,512,506,0,1018,38,0
14,0,0,0,0,508,506,0,1018,38,0
15,0,0,0,0,509,505,0,1018,39,0
0,0,0,0,0,509,506,0,1018,38,0
1,0,0,0,0,508,508,0,1018,38,0
2,0,0,0,0,510,508,0,1018,38,0
3,0,0,0,0,510,508,0,1018,38,0
4,0,0,0,0,508,508,0,1018,38,0
5,0,0,0,0,510,509,0,1018,38,0
6,0,0,0,0,506,508,0,1018,38,0
7,0,0,0,0,509,508,0,1018,39,0
8,0,0,0,0,510,506,0,1018,38,0
9,0,0,0,0,508,506,0,1018,38,0
10,0,0,0,0,508,507,0,1018,38,0
11,0,0,0,0,507,507,0,1018,38,0
12,0,0,0,0,508,509,0,1018,38,0
13,0,0,0,0,509,507,0,1018,38,0
14,0,0,0,0,507,505,0,1018,38,0
15,0,0,0,0,511,507,0,1018,39,0
0,0,0,0,0,511,507,0,1018,38,0
1,0,0,0,0,510,509,0,1018,38,0
2,0,0,0,0,508,508,0,1018,38,0
3,0,0,0,0,511,508,0,1018,38,0
4,0,0,0,0,510,507,0,1018,38,0
5,0,0,0,0,509,507,0,1018,38,0
6,0,0,0,0,509,508,0,1018,38,0
7,0,0,0,0,511,507,0,1018,39,0
8,0,0,0,0,508,506,0,1018,38,0
9,0,0,0,0,510,503,0,1017,38,0
10,0,0,0,0,510,503,0,1018,38,0
11,0,0,0,0,509,502,0,1018,38,0
12,0,0,0,0,509,502,0,1018,38,0
13,0,0,0,0,511,502,0,1018,38,0
14,0,0,0,0,508,504,0,1018,38,0
15,0,0,0,0,508,506,0,1018,39,0
0,0,0,0,0,509,505,0,1018,38,0
1,0,0,0,0,509,506,0,1018,38,0
2,0,0,0,0,508,505,0,1018,38,0
3,0,0,0,0,509,507,0,1018,38,0
4,0,0,0,0,507,506,0,1018,38,0
5,0,0,0,0,511,507,0,1018,38,1
6,0,0,0,0,511,507,0,1018,38,1
7,0,0,0,0,509,507,0,1018,39,0
8,0,0,0,0,510,509,0,1018,38,0
9,0,0,0,0,507,508,0,1018,38,0
10,0,0,0,0,508,508,0,1018,38,0
11,0,0,0,0,509,504,0,1018,38,0
12,0,0,0,0,508,506,0,1018,38,0
13,0,0,0,0,511,505,0,1018,38,0
14,0,0,0,0,510,505,0,1018,38,1
15,0,0,0,0,509,504,0,1018,39,0
0,0,0,0,0,510,506,0,1018,38,0
1,0,0,0,0,509,506,0,1018,38,0
2,0,0,0,0,508,507,0,808,38,0
3,0,0,0,0,508,507,0,468,38,0
4,0,0,0,0,509,507,0,40,38,0
5,0,0,0,0,509,507,0,0,38,1
6,0,0,0,0,510,507,0,0,38,1
7,0,0,0,0,511,509,0,0,39,0
8,0,0,0,0,508,509,0,0,38,0
9,0,0,0,0,510,508,0,0,38,0
10,0,0,0,0,507,506,0,0,38,0
11,0,0,0,0,510,507,0,0,38,0
12,0,0,0,0,509,508,0,0,38,0
13,0,0,0,0,507,509,0,0,38,1
14,0,0,0,0,508,510,0,0,38,1
15,0,0,0,0,508,510,0,0,39,0
0,0,0,0,0,510,509,0,0,38,0
1,0,0,0,0,510,507,0,0,38,0
2,0,0,0,0,509,507,0,0,38,0
3,0,0,0,0,509,508,0,0,38,0
4,0,0,0,0,509,507,0,0,38,0
5,0,0,0,0,508,506,0,0,38,0
6,0,0,0,0,510,507,0,0,38,1
7,0,0,0,0,507,508,0,338,39,0
8,0,0,0,0,510,507,0,590,38,0
9,0,0,0,0,510,508,0,726,38,0
10,0,0,0,0,508,508,0,789,38,0
11,0,0,0,0,511,507,0,861,38,0
12,0,0,0,0,509,506,0,933,38,0
13,0,0,0,0,509,506,0,807,38,0
14,0,0,0,0,509,509,0,676,38,1
15,0,0,0,0,510,506,0,532,39,1
0,0,0,0,0,508,506,0,342,38,0
1,0,0,0,0,506,507,0,153,38,0
2,0,0,0,0,510,507,0,91,38,0
3,0,0,0,0,508,508,0,67,38,0
4,0,0,0,0,508,509,0,5,38,0
5,0,0,0,0,508,509,0,33,38,0
6,0,0,0,0,508,508,0,66,38,1
7,0,0,0,0,508,508,0,107,39,1
8,0,0,0,0,509,509,0,323,38,0
9,0,0,0,0,510,508,0,536,38,0
10,0,0,0,0,512,509,0,657,38,0
11,0,0,0,0,510,509,0,779,38,0
12,0,0,0,0,510,510,0,828,38,0
13,0,0,0,0,511,511,0,879,38,0
14,0,0,0,0,510,509,0,912,38,1
15,0,0,0,0,510,510,0,928,39,1
0,0,0,0,0,508,508,0,1018,38,1
1,0,0,0,0,507,511,0,1018,38,0
2,0,0,0,0,511,512,0,1018,38,0
3,0,0,0,0,509,509,0,1018,38,0
4,0,0,0,0,512,509,0,1018,38,0
5,0,0,0,0,509,511,0,1018,38,0
6,0,0,0,0,508,511,0,1018,38,1
7,0,0,0,0,509,511,0,1018,39,1
8,0,0,0,0,507,512,0,1018,38,1
9,0,0,0,0,507,510,0,1017,38,1
10,0,0,0,0,510,509,0,1018,38,0
11,0,0,0,0,511,510,0,1018,38,0
12,0,0,0,0,511,509,0,1018,38,0
13,0,0,0,0,509,507,0,1018,38,0
14,0,0,0,0,511,506,0,1018,38,1
15,0,0,0,0,511,507,0,1018,39,1
0,0,0,0,0,510,508,0,1018,38,1
1,0,0,0,0,509,509,0,1018,38,1
2,0,0,0,0,506,508,0,1018,38,0
3,0,0,0,0,508,508,0,1018,38,0
4,0,0,0,0,508,508,0,1018,38,0
5,0,0,0,0,508,508,0,1018,38,0
6,0,0,0,0,509,508,0,1018,38,1
7,0,0,0,0,508,508,0,1018,39,1
8,0,0,0,0,512,508,0,1018,38,1
9,0,0,0,0,509,508,0,1018,38,1
10,0,0,0,0,510,506,0,1018,38,0
11,0,0,0,0,512,505,0,1018,38,0
12,0,0,0,0,508,505,0,1018,38,0
13,0,0,0,0,509,506,0,1018,38,0
14,0,0,0,0,508,507,0,1018,38,0
15,0,0,0,0,509,508,0,1018,39,1
0,0,0,0,0,507,508,0,1018,38,1
1,0,0,0,0,509,508,0,1018,38,1
2,0,0,0,0,510,509,0,1018,38,0
3,0,0,0,0,509,507,0,1018,38,0
4,0,0,0,0,511,509,0,1018,38,0
5,0,0,0,0,510,509,0,1018,38,0
6,0,0,0,0,509,508,0,1018,38,0
7,0,0,0,0,511,509,0,1018,39,0
8,0,0,0,0,509,511,0,1018,38,1
9,0,0,0,0,511,511,0,1018,38,1
10,0,0,0,0,508,509,0,1018,38,0
11,0,0,0,0,508,508,0,1018,38,0
12,0,0,0,0,510,507,0,1018,38,0
13,0,0,0,0,508,505,0,1018,38,0
14,0,0,0,0,508,507,0,1018,38,0
15,0,0,0,0,511,507,0,1018,39,0
0,0,0,0,0,510,507,0,1018,38,0
1,0,0,0,0,510,507,0,1018,38,1
2,0,0,0,0,508,509,0,1018,38,0
3,0,0,0,0,510,511,0,1018,38,0
4,0,0,0,0,509,509,0,1018,38,0
5,0,0,0,0,508,508,0,1018,38,0
6,0,0,0,0,509,510,0,1018,38,0
7,0,0,0,0,510,508,0,1018,39,0
8,0,0,0,0,510,508,0,1018,38,0
9,0,0,0,0,510,509,0,1018,38,1
10,0,0,0,0,508,511,0,798,38,1
11,0,0,0,0,510,508,0,284,38,0
12,0,0,0,0,506,508,0,0,38,0
13,0,0,0,0,509,509,0,0,38,0
14,0,0,0,0,510,510,0,0,38,0
15,0,0,0,0,508,510,0,0,39,0
0,0,0,0,0,509,509,0,0,38,0
1,0,0,0,0,508,508,0,0,38,1
2,0,0,0,0,507,508,0,0,38,1
3,0,0,0,0,511,508,0,0,38,1
4,0,0,0,0,508,508,0,0,38,0
5,0,0,0,0,511,508,0,0,38,0
6,0,0,0,0,507,507,0,0,38,0
7,0,0,0,0,509,508,0,0,39,0
8,0,0,0,0,507,508,0,0,38,0
9,0,0,0,0,508,508,0,0,38,1
10,0,0,0,0,511,508,0,0,38,0
11,0,0,0,0,508,508,0,0,38,1
12,0,0,0,0,509,509,0,0,38,0
13,0,0,0,0,510,509,0,0,38,0
14,0,0,0,0,510,509,0,0,38,0
15,0,0,0,0,512,508,0,0,39,0
0,0,0,0,0,508,507,0,0,38,0
1,0,0,0,0,512,508,0,0,38,0
2,0,0,0,0,508,509,0,0,38,0
3,0,0,0,0,508,512,0,0,38,1
4,0,0,0,0,510,512,0,0,38,0
5,0,0,0,0,508,511,0,0,38,0
6,0,0,0,0,508,511,0,0,38,0
7,0,0,0,0,508,510,0,0,39,0
8,0,0,0,0,507,510,0,0,38,0
9,0,0,0,0,509,510,0,0,38,0
10,0,0,0,0,509,511,0,0,38,0
11,0,0,0,0,510,509,0,0,38,1
12,0,0,0,0,509,508,0,0,38,0
13,0,0,0,0,508,507,0,0,38,0
14,0,0,0,0,509,508,0,0,38,0
15,0,0,0,0,510,508,0,0,39,0
0,0,0,0,0,510,509,0,0,38,0
1,0,0,0,0,509,509,0,0,38,0
2,0,0,0,0,510,508,0,0,38,0
3,0,0,0,0,511,507,0,0,38,0
4,0,0,0,0,509,509,0,0,38,1
5,0,0,0,0,509,509,0,0,38,0
6,0,0,0,0,509,507,0,0,38,0
7,0,0,0,0,509,507,0,0,39,0
8,0,0,0,0,511,507,0,0,38,0
9,0,0,0,0,508,507,0,0,38,0
10,0,0,0,0,508,504,0,0,38,0
11,0,0,0,0,508,504,0,0,38,1
12,0,0,0,0,510,504,0,0,38,0
13,0,0,0,0,509,505,0,0,38,0
14,0,0,0,0,507,507,0,0,38,0
15,0,0,0,0,510,507,0,0,39,0
0,0,0,0,0,507,507,0,0,38,0
1,0,0,0,0,508,507,0,0,38,0
2,0,0,0,0,509,506,0,0,38,0
3,0,0,0,0,508,505,0,0,38,0
4,0,0,0,0,507,506,0,0,38,1
5,0,0,0,0,510,505,0,0,38,0
6,0,0,0,0,508,504,0,0,38,0
7,0,0,0,0,509,505,0,0,39,0
8,0,0,0,0,508,506,0,0,38,0
9,0,0,0,0,510,507,0,0,38,0
10,0,0,0,0,509,504,0,0,38,0
11,0,0,0,0,510,502,0,0,38,0
12,0,0,0,0,511,505,0,0,38,0
13,0,0,0,0,507,506,0,0,38,0
14,0,0,0,0,510,508,0,0,38,0
15,0,0,0,0,509,508,0,0,39,0
0,0,0,0,0,510,507,0,0,38,0
1,0,0,0,0,510,508,0,0,38,0
2,0,0,0,0,507,508,0,0,38,0
3,0,0,0,0,507,509,0,0,38,0
4,0,0,0,0,510,509,0,0,38,0
5,0,0,0,0,508,509,0,0,38,0
6,0,0,0,0,510,509,0,0,38,0
7,0,0,0,0,509,509,0,0,39,0
8,0,0,0,0,510,509,0,0,38,0
9,0,0,0,0,508,507,0,0,38,0
10,0,0,0,0,509,507,0,0,38,0
11,0,0,0,0,509,507,0,0,38,0
12,0,0,0,0,508,507,0,0,38,0
13,0,0,0,0,508,506,0,0,38,0
14,0,0,0,0,508,506,0,0,38,0
15,0,0,0,0,509,507,0,0,39,0
0,0,0,0,0,510,508,0,0,38,0
1,0,0,0,0,507,507,0,0,38,0
2,0,0,0,0,511,508,0,305,38,0
3,0,0,0,0,510,506,0,884,38,0
4,0,0,0,0,510,507,0,1018,38,0
5,0,0,0,0,510,506,0,1018,38,0
6,0,0,0,0,508,508,0,1018,38,1
7,0,0,0,0,509,508,0,1018,39,0
8,0,0,0,0,510,507,0,1018,38,0
9,0,0,0,0,510,506,0,1018,38,0
10,0,0,0,0,509,505,0,1018,38,0
11,0,0,0,0,511,506,0,1018,38,0
12,0,0,0,0,508,508,0,1018,38,0
13,0,0,0,0,510,509,0,1018,38,0
14,0,0,0,0,510,508,0,1018,38,1
15,0,0,0,0,511,508,0,1018,39,0
0,0,0,0,0,508,508,0,1018,38,0
1,0,0,0,0,509,509,0,1018,38,0
2,0,0,0,0,508,507,0,1018,38,0
3,0,0,0,0,510,508,0,1018,38,0
4,0,0,0,0,511,507,0,1018,38,0
5,0,0,0,0,510,508,0,1018,38,0
6,0,0,0,0,511,508,0,1018,38,1
7,0,0,0,0,510,507,0,1018,39,0
8,0,0,0,0,510,506,0,1018,38,0
9,0,0,0,0,511,507,0,1018,38,0
10,0,0,0,0,508,508,0,1018,38,0
11,0,0,0,0,507,507,0,1018,38,0
12,0,0,0,0,509,507,0,1018,38,0
13,0,0,0,0,509,507,0,1018,38,0
14,0,0,0,0,511,508,0,1018,38,1
15,0,0,0,0,509,508,0,1018,39,1
0,0,0,0,0,508,507,0,1018,38,0
1,0,0,0,0,509,507,0,1018,38,0
2,0,0,0,0,511,506,0,1018,38,0
3,0,0,0,0,510,505,0,1018,38,0
4,0,0,0,0,508,506,0,1018,38,0
5,0,0,0,0,508,507,0,1018,38,0
6,0,0,0,0,508,506,0,1018,38,1
7,0,0,0,0,507,506,0,1018,39,1
8,0,0,0,0,509,508,0,1018,38,0
9,0,0,0,0,512,507,0,1018,38,0
10,0,0,0,0,508,508,0,1018,38,0
11,0,0,0,0,510,509,0,1018,38,0
12,0,0,0,0,508,511,0,1018,38,0
13,0,0,0,0,510,510,0,1018,38,0
14,0,0,0,0,510,509,0,1018,38,1
15,0,0,0,0,510,508,0,1018,39,1
0,0,0,0,0,509,509,0,1018,38,0
1,0,0,0,0,510,511,0,1018,38,0
2,0,0,0,0,509,511,0,1018,38,0
3,0,0,0,0,508,511,0,1018,38,0
4,0,0,0,0,509,509,0,1018,38,0
5,0,0,0,0,511,509,0,1018,38,0
6,0,0,0,0,510,508,0,1018,38,1
7,0,0,0,0,511,510,0,1018,39,1
8,0,0,0,0,508,510,0,1018,38,0
9,0,0,0,0,509,510,0,1018,38,0
10,0,0,0,0,508,508,0,1018,38,0
11,0,0,0,0,508,510,0,1018,38,0
12,0,0,0,0,508,508,0,1018,38,0
13,0,0,0,0,511,507,0,1018,38,0
14,0,0,0,0,511,506,0,1018,38,1
15,0,0,0,0,508,507,0,1018,39,1
0,0,0,0,0,511,506,0,1018,38,1
1,0,0,0,0,509,506,0,1018,38,0
2,0,0,0,0,509,506,0,1018,38,0
3,0,0,0,0,510,507,0,1018,38,0
4,0,0,0,0,508,508,0,1018,38,0
5,0,0,0,0,510,508,0,1018,38,0
6,0,0,0,0,510,509,0,1018,38,0
7,0,0,0,0,510,509,0,1018,39,1
8,0,0,0,0,508,509,0,1018,38,1
9,0,0,0,0,508,509,0,1018,38,1
10,0,0,0,0,511,509,0,1018,38,0
11,0,0,0,0,512,508,0,1018,38,0
12,0,0,0,0,508,507,0,1018,38,0
13,0,0,0,0,508,507,0,1018,38,0
14,0,0,0,0,510,506,0,1018,38,1
15,0,0,0,0,509,507,0,1018,39,1
0,0,0,0,0,507,507,0,1018,38,1
1,0,0,0,0,507,508,0,1018,38,1
2,0,0,0,0,510,508,0,1018,38,0
3,0,0,0,0,511,507,0,1018,38,0
4,0,0,0,0,509,508,0,1018,38,0
5,0,0,0,0,510,507,0,1018,38,0
6,0,0,0,0,508,507,0,779,38,0
7,0,0,0,0,510,507,0,639,39,1
8,0,0,0,0,509,507,0,603,38,1
9,0,0,0,0,510,506,0,575,38,1
10,0,0,0,0,511,506,0,456,38,0
11,0,0,0,0,507,506,0,255,38,0
12,0,0,0,0,509,507,0,0,38,0
13,0,0,0,0,510,507,0,0,38,0
14,0,0,0,0,510,506,0,0,38,0
15,0,0,0,0,509,504,0,0,39,0
0,0,0,0,0,507,505,0,0,38,1
1,0,0,0,0,508,504,0,0,38,1
2,0,0,0,0,510,505,0,0,38,0
3,0,0,0,0,510,507,0,0,38,0
4,0,0,0,0,509,505,0,0,38,0
5,0,0,0,0,507,504,0,0,38,0
6,0,0,0,0,508,506,0,0,38,0
7,0,0,0,0,510,506,0,0,39,0
8,0,0,0,0,509,508,0,0,38,1
9,0,0,0,0,511,509,0,0,38,1
10,0,0,0,0,508,509,0,0,38,0
11,0,0,0,0,509,510,0,0,38,0
12,0,0,0,0,508,510,0,0,38,0
13,0,0,0,0,508,509,0,0,38,0
14,0,0,0,0,511,508,0,0,38,0
15,0,0,0,0,507,509,0,0,39,0
0,0,0,0,0,509,510,0,0,38,1
1,0,0,0,0,508,510,0,0,38,1
2,0,0,0,0,511,510,0,0,38,1
3,0,0,0,0,511,508,0,0,38,0
4,0,0,0,0,510,508,0,0,38,0
5,0,0,0,0,509,510,0,0,38,0
6,0,0,0,0,508,509,0,0,38,0
7,0,0,0,0,510,508,0,0,39,0
8,0,0,0,0,510,508,0,0,38,0
9,0,0,0,0,508,509,0,0,38,1
10,0,0,0,0,508,510,0,0,38,1
11,0,0,0,0,509,510,0,0,38,1
12,0,0,0,0,509,510,0,0,38,0
13,0,0,0,0,509,508,0,0,38,0
14,0,0,0,0,508,508,0,0,38,0
15,0,0,0,0,509,507,0,0,39,0
0,0,0,0,0,507,504,0,0,38,0
1,0,0,0,0,507,505,0,0,38,1
2,0,0,0,0,510,508,0,0,38,0
3,0,0,0,0,512,508,0,0,38,1
4,0,0,0,0,511,509,0,0,38,0
5,0,0,0,0,510,508,0,0,38,0
6,0,0,0,0,507,508,0,0,38,0
7,0,0,0,0,508,509,0,0,39,0
8,0,0,0,0,509,511,0,0,38,0
9,0,0,0,0,510,511,0,0,38,0
10,0,0,0,0,509,510,0,0,38,0
11,0,0,0,0,510,510,0,0,38,1
12,0,0,0,0,510,508,0,0,38,0
13,0,0,0,0,506,509,0,0,38,0
14,0,0,0,0,508,509,0,0,38,0
15,0,0,0,0,507,508,0,0,39,0
0,0,0,0,0,511,508,0,0,38,0
1,0,0,0,0,510,508,0,0,38,0
2,0,0,0,0,508,508,0,0,38,0
3,0,0,0,0,508,510,0,0,38,1
4,0,0,0,0,510,510,0,0,38,0
5,0,0,0,0,508,509,0,0,38,0
6,0,0,0,0,506,508,0,0,38,0
7,0,0,0,0,509,508,0,0,39,0
8,0,0,0,0,511,508,0,0,38,0
9,0,0,0,0,507,507,0,0,38,0
10,0,0,0,0,510,505,0,0,38,0
11,0,0,0,0,510,507,0,0,38,1
12,0,0,0,0,507,506,0,0,38,1
13,0,0,0,0,509,507,0,0,38,0
14,0,0,0,0,509,506,0,0,38,0
15,0,0,0,0,508,505,0,0,39,0
0,0,0,0,0,510,506,0,0,38,0
1,0,0,0,0,508,507,0,0,38,0
2,0,0,0,0,510,508,0,0,38,0
3,0,0,0,0,509,508,0,0,38,1
4,0,0,0,0,510,509,0,0,38,1
5,0,0,0,0,510,509,0,0,38,0
6,0,0,0,0,507,509,0,0,38,0
7,0,0,0,0,509,510,0,0,39,0
8,0,0,0,0,510,511,0,0,38,0
9,0,0,0,0,510,508,0,0,38,0
10,0,0,0,0,511,508,0,0,38,0
11,0,0,0,0,508,508,0,0,38,1
12,0,0,0,0,508,507,0,0,38,1
13,0,0,0,0,508,507,0,0,38,0
14,0,0,0,0,506,506,0,0,38,0
15,0,0,0,0,509,509,0,0,39,0
0,0,0,0,0,509,510,0,0,38,0
1,0,0,0,0,508,508,0,0,38,0
2,0,0,0,0,508,507,0,0,38,0
3,0,0,0,0,510,507,0,208,38,0
4,0,0,0,0,510,507,0,531,38,1
5,0,0,0,0,508,507,0,873,38,0
6,0,0,0,0,508,509,0,1018,38,0
7,0,0,0,0,508,510,0,1018,39,0
8,0,0,0,0,509,510,0,1018,38,0
9,0,0,0,0,510,510,0,1017,38,0
10,0,0,0,0,508,510,0,1018,38,0
11,0,0,0,0,508,509,0,1018,38,0
12,0,0,0,0,510,507,0,1018,38,0
13,0,0,0,0,509,509,0,1018,38,0
14,0,0,0,0,508,509,0,1018,38,0
15,0,0,0,0,509,508,0,1018,39,0
0,0,0,0,0,508,508,0,1018,38,0
1,0,0,0,0,510,506,0,1018,38,0
2,0,0,0,0,509,506,0,1018,38,0
3,0,0,0,0,511,506,0,1018,38,0
4,0,0,0,0,509,507,0,1018,38,0
5,0,0,0,0,510,508,0,1018,38,1
6,0,0,0,0,509,508,0,1018,38,1
7,0,0,0,0,508,508,0,1018,39,0
8,0,0,0,0,512,508,0,1018,38,0
9,0,0,0,0,509,509,0,1018,38,0
10,0,0,0,0,512,510,0,1018,38,0
11,0,0,0,0,511,508,0,1018,38,0
12,0,0,0,0,508,509,0,1018,38,0
13,0,0,0,0,509,509,0,1018,38,0
14,0,0,0,0,509,510,0,1018,38,1
15,0,0,0,0,510,510,0,1018,39,0
0,0,0,0,0,508,508,0,1018,38,0
1,0,0,0,0,509,508,0,1018,38,0
2,0,0,0,0,508,509,0,1018,38,0
3,0,0,0,0,509,512,0,1018,38,0
4,0,0,0,0,509,512,0,1018,38,0
5,0,0,0,0,509,510,0,1018,38,0
6,0,0,0,0,508,511,0,1018,38,1
7,0,0,0,0,511,511,0,1018,39,0
8,0,0,0,0,510,510,0,1018,38,0
9,0,0,0,0,511,510,0,1018,38,0
10,0,0,0,0,510,509,0,1018,38,0
11,0,0,0,0,510,509,0,1018,38,0
12,0,0,0,0,512,509,0,1018,38,0
13,0,0,0,0,507,509,0,1018,38,0
14,0,0,0,0,509,510,0,1018,38,1
15,0,0,0,0,507,511,0,1018,39,0
0,0,0,0,0,507,511,0,1018,38,0
1,0,0,0,0,509,511,0,1018,38,0
2,0,0,0,0,507,512,0,1018,38,0
3,0,0,0,0,510,513,0,1018,38,0
4,0,0,0,0,511,511,0,1018,38,0
5,0,0,0,0,508,511,0,1018,38,0
6,0,0,0,0,508,510,0,1018,38,1
7,0,0,0,0,508,509,0,1018,39,0
8,0,0,0,0,509,507,0,1018,38,0
9,0,0,0,0,508,505,0,1018,38,0
10,0,0,0,0,510,505,0,1018,38,0
11,0,0,0,0,512,505,0,1018,38,0
12,0,0,0,0,508,505,0,1018,38,0
13,0,0,0,0,512,507,0,1018,38,0
14,0,0,0,0,511,505,0,1018,38,1
15,0,0,0,0,511,503,0,1018,39,0
0,0,0,0,0,511,503,0,1018,38,0
1,0,0,0,0,508,502,0,1018,38,0
2,0,0,0,0,508,503,0,1018,38,0
3,0,0,0,0,508,504,0,1018,38,0
4,0,0,0,0,511,506,0,1018,38,0
5,0,0,0,0,509,507,0,1018,38,0
6,0,0,0,0,508,506,0,1018,38,1
7,0,0,0,0,510,507,0,1018,39,1
8,0,0,0,0,508,506,0,1018,38,0
9,0,0,0,0,510,506,0,1017,38,0
10,0,0,0,0,509,505,0,575,38,0
11,0,0,0,0,508,505,0,223,38,0
12,0,0,0,0,508,505,0,0,38,0
13,0,0,0,0,510,505,0,0,38,0
14,0,0,0,0,509,506,0,0,38,1
15,0,0,0,0,509,506,0,0,39,1
0,0,0,0,0,507,505,0,0,38,0
1,0,0,0,0,509,504,0,0,38,0
2,0,0,0,0,507,504,0,0,38,0
3,0,0,0,0,508,504,0,0,38,0
4,0,0,0,0,510,504,0,0,38,0
5,0,0,0,0,508,503,0,0,38,0
6,0,0,0,0,510,505,0,0,38,1
7,0,0,0,0,507,504,0,0,39,1
8,0,0,0,0,509,504,0,0,38,1
9,0,0,0,0,509,506,0,0,38,0
10,0,0,0,0,509,504,0,0,38,0
11,0,0,0,0,509,506,0,0,38,0
12,0,0,0,0,509,506,0,0,38,0
13,0,0,0,0,508,506,0,0,38,0
14,0,0,0,0,512,505,0,0,38,1
15,0,0,0,0,506,504,0,0,39,1
0,0,0,0,0,509,504,0,0,38,1
1,0,0,0,0,509,503,0,0,38,0
2,0,0,0,0,508,506,0,0,38,0
3,0,0,0,0,509,506,0,0,38,0
4,0,0,0,0,509,506,0,0,38,0
5,0,0,0,0,508,506,0,0,38,0
6,0,0,0,0,510,505,0,0,38,1
7,0,0,0,0,508,507,0,0,39,1
8,0,0,0,0,509,506,0,0,38,1
9,0,0,0,0,508,507,0,0,38,0
10,0,0,0,0,509,508,0,0,38,0
11,0,0,0,0,510,505,0,0,38,0
12,0,0,0,0,510,506,0,0,38,0
13,0,0,0,0,508,505,0,0,38,0
14,0,0,0,0,510,505,0,0,38,0
15,0,0,0,0,510,507,0,0,39,1
0,0,0,0,0,509,507,0,0,38,1
1,0,0,0,0,511,509,0,0,38,1
2,0,0,0,0,508,507,0,0,38,0
3,0,0,0,0,507,507,0,0,38,0
4,0,0,0,0,510,508,0,0,38,0
5,0,0,0,0,508,507,0,0,38,0
6,0,0,0,0,508,507,0,0,38,0
7,0,0,0,0,510,508,0,0,39,0
8,0,0,0,0,509,508,0,0,38,1
9,0,0,0,0,507,507,0,0,38,1
10,0,0,0,0,510,506,0,0,38,0
11,0,0,0,0,512,506,0,372,38,0
12,0,0,0,0,510,508,0,716,38,0
13,0,0,0,0,507,509,0,880,38,0
14,0,0,0,0,509,508,0,901,38,0
15,0,0,0,0,508,507,0,897,39,0
0,0,0,0,0,508,505,0,939,38,1
1,0,0,0,0,508,505,0,1017,38,1
2,0,0,0,0,508,507,0,1018,38,0
3,0,0,0,0,509,508,0,1018,38,0
4,0,0,0,0,508,507,0,1018,38,0
5,0,0,0,0,508,506,0,1018,38,0
6,0,0,0,0,511,506,0,1018,38,0
7,0,0,0,0,508,508,0,1018,39,0
8,0,0,0,0,511,511,0,1018,38,1
9,0,0,0,0,508,512,0,1018,38,1
10,0,0,0,0,510,513,0,1018,38,1
11,0,0,0,0,510,511,0,1018,38,0
12,0,0,0,0,508,510,0,1018,38,0
13,0,0,0,0,508,509,0,1018,38,0
14,0,0,0,0,511,508,0,1018,38,0
15,0,0,0,0,509,509,0,1018,39,0
0,0,0,0,0,509,509,0,1018,38,0
1,0,0,0,0,509,509,0,1018,38,1
2,0,0,0,0,511,509,0,1018,38,1
3,0,0,0,0,509,508,0,1018,38,1
4,0,0,0,0,509,508,0,1018,38,0
5,0,0,0,0,509,508,0,1018,38,0
6,0,0,0,0,508,508,0,1018,38,0
7,0,0,0,0,511,508,0,1018,39,0
8,0,0,0,0,510,507,0,1018,38,0
9,0,0,0,0,510,509,0,1018,38,1
10,0,0,0,0,509,509,0,1018,38,1
11,0,0,0,0,507,509,0,1018,38,1
12,0,0,0,0,508,509,0,1018,38,0
13,0,0,0,0,511,508,0,1018,38,0
14,0,0,0,0,510,508,0,1018,38,0
15,0,0,0,0,509,510,0,1018,39,0
0,0,0,0,0,510,510,0,1018,38,0
1,0,0,0,0,509,510,0,1018,38,1
2,0,0,0,0,509,510,0,1018,38,1
3,0,0,0,0,508,510,0,1018,38,1
4,0,0,0,0,508,508,0,1018,38,0
5,0,0,0,0,510,507,0,1018,38,0
6,0,0,0,0,509,507,0,1018,38,0
7,0,0,0,0,511,506,0,1018,39,0
8,0,0,0,0,509,506,0,1018,38,0
9,0,0,0,0,511,506,0,1017,38,1
10,0,0,0,0,508,507,0,1018,38,0
11,0,0,0,0,510,507,0,1018,38,1
12,0,0,0,0,509,507,0,1018,38,0
13,0,0,0,0,507,508,0,1018,38,0
14,0,0,0,0,508,508,0,1018,38,0
15,0,0,0,0,510,508,0,1018,39,0
0,0,0,0,0,508,508,0,1018,38,0
1,0,0,0,0,511,507,0,1018,38,0
2,0,0,0,0,511,508,0,1018,38,0
3,0,0,0,0,511,510,0,1018,38,1
4,0,0,0,0,508,509,0,1018,38,1
5,0,0,0,0,508,509,0,1018,38,0
6,0,0,0,0,510,509,0,1018,38,0
7,0,0,0,0,507,507,0,1018,39,0
8,0,0,0,0,509,507,0,1018,38,0
9,0,0,0,0,510,508,0,1018,38,0
10,0,0,0,0,508,508,0,1018,38,0
11,0,0,0,0,509,506,0,1018,38,1
12,0,0,0,0,507,507,0,1018,38,1
13,0,0,0,0,508,507,0,1018,38,0
14,0,0,0,0,506,507,0,1018,38,0
15,0,0,0,0,510,508,0,1018,39,0
0,0,0,0,0,512,508,0,1018,38,0
1,0,0,0,0,509,509,0,1018,38,0
2,0,0,0,0,511,508,0,1018,38,0
3,0,0,0,0,510,508,0,1018,38,1
4,0,0,0,0,511,507,0,1018,38,1
5,0,0,0,0,509,508,0,1018,38,0
6,0,0,0,0,508,507,0,1018,38,0
7,0,0,0,0,508,510,0,1018,39,0
8,0,0,0,0,508,510,0,1018,38,0
9,0,0,0,0,510,509,0,1018,38,0
10,0,0,0,0,509,508,0,1018,38,0
11,0,0,0,0,508,507,0,1018,38,1
12,0,0,0,0,510,505,0,1018,38,1
13,0,0,0,0,509,506,0,1018,38,0
14,0,0,0,0,508,509,0,1018,38,0
15,0,0,0,0,510,511,0,1018,39,0
0,0,0,0,0,510,510,0,1018,38,0
1,0,0,0,0,506,511,0,1018,38,0
2,0,0,0,0,509,509,0,1018,38,0
3,0,0,0,0,510,508,0,1018,38,0
4,0,0,0,0,510,507,0,1018,38,1
5,0,0,0,0,510,506,0,1018,38,0
6,0,0,0,0,511,507,0,1018,38,0
7,0,0,0,0,508,505,0,1018,39,0
8,0,0,0,0,510,503,0,1018,38,0
9,0,0,0,0,511,504,0,1018,38,0
10,0,0,0,0,510,505,0,1018,38,0
11,0,0,0,0,511,505,0,743,38,0
12,0,0,0,0,507,506,0,196,38,1
13,0,0,0,0,506,506,0,0,38,1
14,0,0,0,0,506,506,0,0,38,1
15,0,0,0,0,509,506,0,0,39,0
0,0,0,0,0,511,505,0,0,38,0
1,0,0,0,0,508,507,0,0,38,0
2,0,0,0,0,510,507,0,0,38,0
3,0,0,0,0,511,508,0,0,38,0
4,0,0,0,0,509,507,0,0,38,0
5,0,0,0,0,511,508,0,0,38,0
6,0,0,0,0,508,508,0,0,38,1
7,0,0,0,0,509,507,0,0,39,0
8,0,0,0,0,509,505,0,0,38,0
9,0,0,0,0,508,505,0,0,38,0
10,0,0,0,0,511,506,0,0,38,0
11,0,0,0,0,508,505,0,0,38,0
12,0,0,0,0,509,505,0,0,38,0
13,0,0,0,0,509,504,0,0,38,0
14,0,0,0,0,508,503,0,0,38,1
15,0,0,0,0,511,504,0,0,39,0
0,0,0,0,0,508,505,0,0,38,0
1,0,0,0,0,508,504,0,0,38,0
2,0,0,0,0,508,503,0,0,38,0
3,0,0,0,0,511,504,0,0,38,0
4,0,0,0,0,510,504,0,0,38,0
5,0,0,0,0,511,505,0,0,38,0
6,0,0,0,0,510,506,0,0,38,1
7,0,0,0,0,509,506,0,0,39,0
8,0,0,0,0,508,508,0,0,38,0
9,0,0,0,0,508,508,0,0,38,0
10,0,0,0,0,506,507,0,0,38,0
11,0,0,0,0,508,507,0,0,38,0
12,0,0,0,0,511,508,0,0,38,0
13,0,0,0,0,507,508,0,0,38,0
14,0,0,0,0,511,509,0,0,38,1
15,0,0,0,0,508,508,0,0,39,0
0,0,0,0,0,510,508,0,0,38,0
1,0,0,0,0,507,508,0,0,38,0
2,0,0,0,0,508,509,0,0,38,0
3,0,0,0,0,510,508,0,0,38,0
4,0,0,0,0,509,508,0,0,38,0
5,0,0,0,0,508,508,0,0,38,0
6,0,0,0,0,508,508,0,0,38,1
7,0,0,0,0,509,507,0,0,39,0
8,0,0,0,0,511,508,0,0,38,0
9,0,0,0,0,510,509,0,0,38,0
10,0,0,0,0,508,509,0,0,38,0
11,0,0,0,0,510,508,0,0,38,0
12,0,0,0,0,510,508,0,0,38,0
13,0,0,0,0,509,508,0,0,38,0
14,0,0,0,0,507,508,0,0,38,1
15,0,0,0,0,510,508,0,0,39,1
0,0,0,0,0,509,506,0,0,38,0
1,0,0,0,0,508,507,0,0,38,0
2,0,0,0,0,508,507,0,0,38,0
3,0,0,0,0,508,508,0,0,38,0
4,0,0,0,0,509,509,0,0,38,0
5,0,0,0,0,509,508,0,0,38,0
6,0,0,0,0,509,510,0,0,38,1
7,0,0,0,0,508,510,0,0,39,1
8,0,0,0,0,507,510,0,0,38,0
9,0,0,0,0,509,511,0,0,38,0
10,0,0,0,0,509,510,0,0,38,0
11,0,0,0,0,509,511,0,0,38,0
12,0,0,0,0,511,510,0,0,38,0
13,0,0,0,0,508,511,0,0,38,0
14,0,0,0,0,508,509,0,0,38,1
15,0,0,0,0,508,509,0,0,39,1
0,0,0,0,0,509,508,0,0,38,0
1,0,0,0,0,510,508,0,0,38,0
2,0,0,0,0,506,508,0,0,38,0
3,0,0,0,0,509,508,0,0,38,0
4,0,0,0,0,510,507,0,0,38,0
5,0,0,0,0,511,508,0,0,38,0
6,0,0,0,0,510,508,0,0,38,1
7,0,0,0,0,506,509,0,0,39,1
8,0,0,0,0,507,510,0,0,38,1
9,0,0,0,0,508,510,0,0,38,0
10,0,0,0,0,510,510,0,0,38,0
11,0,0,0,0,510,508,0,0,38,0
12,0,0,0,0,507,509,0,0,38,0
13,0,0,0,0,509,509,0,0,38,0
14,0,0,0,0,511,509,0,0,38,0
15,0,0,0,0,508,508,0,0,39,0
0,0,0,0,0,511,508,0,0,38,0
1,0,0,0,0,508,508,0,0,38,0
2,0,0,0,0,507,508,0,0,38,0
3,0,0,0,0,510,508,0,0,38,0
4,0,0,0,0,508,508,0,0,38,0
5,0,0,0,0,511,508,0,0,38,0
6,0,0,0,0,510,508,0,0,38,0
7,0,0,0,0,509,510,0,0,39,0
8,0,0,0,0,509,511,0,0,38,1
9,0,0,0,0,507,508,0,0,38,1
10,0,0,0,0,508,508,0,0,38,0
11,0,0,0,0,510,509,0,0,38,0
12,0,0,0,0,510,510,0,0,38,0
13,0,0,0,0,511,509,0,0,38,0
14,0,0,0,0,510,508,0,0,38,0
15,0,0,0,0,510,508,0,0,39,0
0,0,0,0,0,510,508,0,0,38,1
1,0,0,0,0,511,508,0,0,38,1
2,0,0,0,0,510,508,0,0,38,0
3,0,0,0,0,508,508,0,0,38,0
4,0,0,0,0,510,507,0,0,38,0
5,0,0,0,0,508,508,0,0,38,0
6,0,0,0,0,507,510,0,0,38,0
7,0,0,0,0,508,509,0,0,39,0
8,0,0,0,0,510,510,0,0,38,1
9,0,0,0,0,509,511,0,0,38,1
10,0,0,0,0,510,510,0,0,38,0
11,0,0,0,0,508,509,0,0,38,0
12,0,0,0,0,510,508,0,0,38,0
13,0,0,0,0,510,507,0,0,38,0
14,0,0,0,0,508,507,0,0,38,0
15,0,0,0,0,508,509,0,0,39,0
0,0,0,0,0,507,510,0,0,38,1
1,0,0,0,0,508,508,0,0,38,1
2,0,0,0,0,508,509,0,0,38,1
3,0,0,0,0,509,509,0,0,38,0
4,0,0,0,0,508,509,0,0,38,0
5,0,0,0,0,508,507,0,0,38,0
6,0,0,0,0,508,505,0,0,38,0
7,0,0,0,0,511,505,0,0,39,0
8,0,0,0,0,511,506,0,0,38,0
9,0,0,0,0,510,509,0,0,38,1
10,0,0,0,0,508,508,0,0,38,1
11,0,0,0,0,508,508,0,0,38,0
12,0,0,0,0,507,506,0,0,38,0
13,0,0,0,0,507,507,0,0,38,0
14,0,0,0,0,505,508,0,0,38,0
15,0,0,0,0,510,508,0,0,39,0
0,0,0,0,0,509,507,0,0,38,0
1,0,0,0,0,510,508,0,0,38,1
2,0,0,0,0,509,508,0,0,38,0
3,0,0,0,0,511,508,0,0,38,1
4,0,0,0,0,510,508,0,0,38,0
5,0,0,0,0,506,508,0,0,38,0
6,0,0,0,0,509,510,0,0,38,0
7,0,0,0,0,512,511,0,0,39,0
8,0,0,0,0,508,510,0,0,38,0
9,0,0,0,0,510,511,0,0,38,1
10,0,0,0,0,509,509,0,217,38,1
11,0,0,0,0,511,508,0,807,38,1
12,0,0,0,0,509,509,0,1018,38,0
13,0,0,0,0,511,509,0,1018,38,0
14,0,0,0,0,508,511,0,1018,38,0
15,0,0,0,0,510,508,0,1018,39,0
0,0,0,0,0,510,506,0,1018,38,0
1,0,0,0,0,511,509,0,1018,38,0
2,0,0,0,0,509,508,0,1018,38,1
3,0,0,0,0,510,507,0,1018,38,1
4,0,0,0,0,508,506,0,1018,38,1
5,0,0,0,0,508,506,0,1018,38,0
6,0,0,0,0,512,505,0,1018,38,0
7,0,0,0,0,508,507,0,1018,39,0
8,0,0,0,0,511,508,0,1018,38,0
9,0,0,0,0,509,508,0,1018,38,0
10,0,0,0,0,508,510,0,1018,38,1
11,0,0,0,0,510,509,0,1018,38,1
12,0,0,0,0,508,509,0,1018,38,1
13,0,0,0,0,509,508,0,1018,38,0
14,0,0,0,0,509,508,0,1018,38,0
15,0,0,0,0,510,508,0,1018,39,0
0,0,0,0,0,510,508,0,1018,38,0
1,0,0,0,0,508,508,0,1018,38,0
2,0,0,0,0,510,507,0,1018,38,0
3,0,0,0,0,511,508,0,1018,38,1
4,0,0,0,0,509,507,0,1018,38,1
5,0,0,0,0,510,508,0,1018,38,0
6,0,0,0,0,510,510,0,1018,38,0
7,0,0,0,0,508,509,0,1018,39,0
8,0,0,0,0,508,510,0,1018,38,0
9,0,0,0,0,509,509,0,1018,38,0
10,0,0,0,0,510,508,0,1018,38,0
11,0,0,0,0,509,508,0,1018,38,1
12,0,0,0,0,512,507,0,1018,38,1
13,0,0,0,0,510,508,0,1018,38,0
14,0,0,0,0,509,507,0,1018,38,0
15,0,0,0,0,510,506,0,1018,39,0
0,0,0,0,0,508,507,0,1018,38,0
1,0,0,0,0,510,509,0,1018,38,0
2,0,0,0,0,510,508,0,1018,38,0
3,0,0,0,0,510,509,0,1018,38,1
4,0,0,0,0,509,509,0,1018,38,1
5,0,0,0,0,508,511,0,1018,38,0
6,0,0,0,0,508,512,0,1018,38,0
7,0,0,0,0,510,512,0,1018,39,0
8,0,0,0,0,510,511,0,1018,38,0
9,0,0,0,0,511,511,0,1017,38,0
10,0,0,0,0,508,511,0,1018,38,0
11,0,0,0,0,510,510,0,1018,38,1
12,0,0,0,0,510,509,0,1018,38,1
13,0,0,0,0,510,508,0,1018,38,1
14,0,0,0,0,510,508,0,1018,38,0
15,0,0,0,0,507,508,0,1018,39,0
0,0,0,0,0,510,508,0,1018,38,0
1,0,0,0,0,505,510,0,1018,38,0
2,0,0,0,0,508,510,0,1018,38,0
3,0,0,0,0,510,508,0,1018,38,0
4,0,0,0,0,507,508,0,1018,38,1
5,0,0,0,0,510,509,0,1018,38,1
6,0,0,0,0,509,508,0,1018,38,1
7,0,0,0,0,509,508,0,1018,39,0
8,0,0,0,0,510,509,0,1018,38,0
9,0,0,0,0,511,508,0,1018,38,0
10,0,0,0,0,510,509,0,1018,38,0
11,0,0,0,0,509,509,0,1018,38,0
12,0,0,0,0,508,510,0,1018,38,0
13,0,0,0,0,510,509,0,1018,38,1
14,0,0,0,0,508,508,0,1018,38,1
15,0,0,0,0,506,508,0,1018,39,0
0,0,0,0,0,510,508,0,1018,38,0
1,0,0,0,0,507,506,0,1018,38,0
2,0,0,0,0,509,505,0,1018,38,0
3,0,0,0,0,508,507,0,1018,38,0
4,0,0,0,0,509,508,0,1018,38,0
5,0,0,0,0,510,507,0,1018,38,1
6,0,0,0,0,511,507,0,1018,38,1
7,0,0,0,0,511,508,0,1018,39,0
8,0,0,0,0,508,509,0,1018,38,0
9,0,0,0,0,511,511,0,1018,38,0
10,0,0,0,0,508,509,0,1018,38,0
11,0,0,0,0,509,508,0,1018,38,0
12,0,0,0,0,512,508,0,1018,38,0
13,0,0,0,0,509,506,0,1018,38,1
14,0,0,0,0,511,505,0,1018,38,1
15,0,0,0,0,510,507,0,1018,39,0
0,0,0,0,0,508,507,0,1018,38,0
1,0,0,0,0,507,507,0,1018,38,0
2,0,0,0,0,508,507,0,1018,38,0
3,0,0,0,0,507,507,0,1018,38,0
4,0,0,0,0,508,507,0,1018,38,0
5,0,0,0,0,511,506,0,1018,38,0
6,0,0,0,0,510,506,0,1018,38,1
7,0,0,0,0,507,506,0,1018,39,0
8,0,0,0,0,512,507,0,1018,38,0
9,0,0,0,0,509,508,0,1018,38,0
10,0,0,0,0,509,508,0,1018,38,0
11,0,0,0,0,508,507,0,1018,38,0
12,0,0,0,0,507,508,0,1018,38,0
13,0,0,0,0,510,508,0,1018,38,0
14,0,0,0,0,510,506,0,1018,38,1
15,0,0,0,0,509,506,0,1017,39,0
0,0,0,0,0,509,507,0,417,38,0
1,0,0,0,0,507,505,0,90,38,0
2,0,0,0,0,509,505,0,0,38,0
3,0,0,0,0,508,506,0,0,38,0
4,0,0,0,0,508,508,0,0,38,0
5,0,0,0,0,509,508,0,0,38,0
6,0,0,0,0,507,507,0,0,38,1
7,0,0,0,0,509,507,0,0,39,0
8,0,0,0,0,509,507,0,0,38,0
9,0,0,0,0,509,508,0,0,38,0
10,0,0,0,0,512,508,0,0,38,0
11,0,0,0,0,508,508,0,0,38,0
12,0,0,0,0,511,508,0,0,38,0
13,0,0,0,0,510,507,0,0,38,0
14,0,0,0,0,511,505,0,0,38,1
15,0,0,0,0,511,504,0,227,39,0
0,0,0,0,0,509,504,0,431,38,0
1,0,0,0,0,509,505,0,659,38,0
2,0,0,0,0,508,505,0,812,38,0
3,0,0,0,0,508,505,0,801,38,0
4,0,0,0,0,509,504,0,703,38,0
5,0,0,0,0,508,504,0,591,38,0
6,0,0,0,0,508,507,0,491,38,1
7,0,0,0,0,508,506,0,522,39,1
8,0,0,0,0,510,504,0,596,38,0
9,0,0,0,0,509,504,0,519,38,0
10,0,0,0,0,508,507,0,442,38,0
11,0,0,0,0,509,509,0,395,38,0
12,0,0,0,0,508,507,0,429,38,0
13,0,0,0,0,509,507,0,359,38,0
14,0,0,0,0,511,507,0,199,38,0
15,0,0,0,0,509,509,0,36,39,1
0,0,0,0,0,511,510,0,0,38,1
1,0,0,0,0,509,509,0,0,38,0
2,0,0,0,0,511,507,0,309,38,0
3,0,0,0,0,511,510,0,531,38,0
4,0,0,0,0,508,511,0,824,38,0
5,0,0,0,0,508,511,0,1018,38,0
6,0,0,0,0,510,511,0,1018,38,0
7,0,0,0,0,509,509,0,1018,39,0
8,0,0,0,0,509,508,0,1018,38,0
9,0,0,0,0,509,507,0,1018,38,0
10,0,0,0,0,507,507,0,1018,38,0
11,0,0,0,0,510,506,0,1018,38,0
12,0,0,0,0,508,508,0,1018,38,0
13,0,0,0,0,509,508,0,1018,38,0
14,0,0,0,0,509,509,0,1018,38,0
15,0,0,0,0,510,508,0,1018,39,0
0,0,0,0,0,510,507,0,1018,38,1
1,0,0,0,0,509,508,0,1018,38,1
2,0,0,0,0,510,507,0,1018,38,0
3,0,0,0,0,510,507,0,1018,38,0
4,0,0,0,0,508,507,0,1018,38,0
5,0,0,0,0,509,505,0,1018,38,0
6,0,0,0,0,506,506,0,1018,38,0
7,0,0,0,0,510,505,0,1018,39,0
8,0,0,0,0,509,507,0,1018,38,1
9,0,0,0,0,508,506,0,1018,38,1
10,0,0,0,0,510,505,0,1018,38,0
11,0,0,0,0,511,507,0,1018,38,0
12,0,0,0,0,511,507,0,1018,38,0
13,0,0,0,0,508,509,0,1018,38,0
14,0,0,0,0,510,510,0,1018,38,0
15,0,0,0,0,511,510,0,1018,39,0
0,0,0,0,0,509,509,0,1018,38,0
1,0,0,0,0,508,509,0,1018,38,0
2,0,0,0,0,507,510,0,1018,38,0
3,0,0,0,0,509,509,0,1018,38,0
4,0,0,0,0,510,509,0,1018,38,0
5,0,0,0,0,508,509,0,1018,38,0
6,0,0,0,0,510,510,0,1018,38,0
7,0,0,0,0,510,510,0,1018,39,0
8,0,0,0,0,508,509,0,540,38,1
9,0,0,0,0,507,507,0,76,38,1
10,0,0,0,0,510,507,0,0,38,0
11,0,0,0,0,509,508,0,0,38,0
12,0,0,0,0,508,509,0,0,38,0
13,0,0,0,0,508,508,0,0,38,0
14,0,0,0,0,508,507,0,0,38,0
15,0,0,0,0,510,508,0,0,39,0
0,0,0,0,0,510,507,0,0,38,1
1,0,0,0,0,509,508,0,0,38,1
2,0,0,0,0,508,507,0,0,38,0
3,0,0,0,0,510,507,0,0,38,0
4,0,0,0,0,509,507,0,0,38,0
5,0,0,0,0,508,509,0,0,38,0
6,0,0,0,0,508,510,0,0,38,0
7,0,0,0,0,510,510,0,0,39,0
8,0,0,0,0,508,508,0,0,38,0
9,0,0,0,0,509,508,0,0,38,1
10,0,0,0,0,510,508,0,0,38,0
11,0,0,0,0,509,505,0,0,38,1
12,0,0,0,0,511,505,0,0,38,0
13,0,0,0,0,509,506,0,0,38,0
14,0,0,0,0,508,507,0,0,38,0
15,0,0,0,0,511,507,0,0,39,0
0,0,0,0,0,509,508,0,0,38,0
1,0,0,0,0,509,507,0,0,38,1
2,0,0,0,0,508,508,0,0,38,1
3,0,0,0,0,508,508,0,0,38,1
4,0,0,0,0,512,509,0,0,38,0
5,0,0,0,0,507,510,0,0,38,0
6,0,0,0,0,507,509,0,0,38,0
7,0,0,0,0,508,508,0,0,39,0
8,0,0,0,0,510,508,0,0,38,0
9,0,0,0,0,510,507,0,0,38,1
10,0,0,0,0,508,506,0,0,38,0
11,0,0,0,0,510,507,0,0,38,1
12,0,0,0,0,510,505,0,0,38,0
13,0,0,0,0,511,506,0,0,38,0
14,0,0,0,0,511,508,0,0,38,0
15,0,0,0,0,509,509,0,0,39,0
0,0,0,0,0,507,509,0,0,38,0
1,0,0,0,0,510,507,0,0,38,1
2,0,0,0,0,510,506,0,0,38,0
3,0,0,0,0,507,507,0,0,38,1
4,0,0,0,0,508,508,0,0,38,1
5,0,0,0,0,507,508,0,0,38,0
6,0,0,0,0,509,507,0,0,38,0
7,0,0,0,0,508,508,0,0,39,0
8,0,0,0,0,509,508,0,0,38,0
9,0,0,0,0,507,508,0,0,38,0
10,0,0,0,0,508,508,0,0,38,1
11,0,0,0,0,509,508,0,0,38,1
12,0,0,0,0,508,506,0,0,38,1
13,0,0,0,0,512,507,0,0,38,0
14,0,0,0,0,510,508,0,0,38,0
15,0,0,0,0,511,508,0,0,39,0
0,0,0,0,0,509,508,0,0,38,0
1,0,0,0,0,509,507,0,0,38,0
2,0,0,0,0,507,505,0,0,38,0
3,0,0,0,0,508,505,0,0,38,1
4,0,0,0,0,508,506,0,0,38,1
5,0,0,0,0,508,505,0,0,38,0
6,0,0,0,0,509,505,0,0,38,0
7,0,0,0,0,509,504,0,0,39,0
8,0,0,0,0,507,506,0,0,38,0
9,0,0,0,0,509,507,0,0,38,0
10,0,0,0,0,509,506,0,0,38,0
11,0,0,0,0,510,506,0,0,38,1
12,0,0,0,0,512,505,0,0,38,1
13,0,0,0,0,508,506,0,0,38,1
14,0,0,0,0,508,508,0,0,38,0
15,0,0,0,0,509,508,0,0,39,0
0,0,0,0,0,509,505,0,0,38,0
1,0,0,0,0,508,506,0,0,38,0
2,0,0,0,0,508,508,0,0,38,0
3,0,0,0,0,511,507,0,0,38,1
4,0,0,0,0,511,508,0,0,38,1
5,0,0,0,0,507,507,0,0,38,1
6,0,0,0,0,508,505,0,0,38,0
7,0,0,0,0,509,506,0,0,39,0
8,0,0,0,0,510,506,0,312,38,0
9,0,0,0,0,508,507,0,549,38,0
10,0,0,0,0,509,508,0,739,38,0
11,0,0,0,0,509,508,0,879,38,0
12,0,0,0,0,508,508,0,1018,38,1
13,0,0,0,0,510,507,0,1018,38,1
14,0,0,0,0,510,508,0,1018,38,1
15,0,0,0,0,509,508,0,1018,39,0
0,0,0,0,0,510,508,0,1018,38,0
1,0,0,0,0,509,508,0,1018,38,0
2,0,0,0,0,510,510,0,1018,38,0
3,0,0,0,0,508,509,0,1018,38,0
4,0,0,0,0,509,508,0,1018,38,1
5,0,0,0,0,509,508,0,1018,38,1
6,0,0,0,0,508,509,0,1018,38,1
7,0,0,0,0,509,508,0,1018,39,0
8,0,0,0,0,510,508,0,1018,38,0
9,0,0,0,0,510,506,0,1018,38,0
10,0,0,0,0,513,506,0,1018,38,0
11,0,0,0,0,509,508,0,1018,38,0
12,0,0,0,0,510,507,0,1018,38,1
13,0,0,0,0,509,508,0,1018,38,1
14,0,0,0,0,509,508,0,1018,38,1
15,0,0,0,0,511,509,0,1018,39,0
0,0,0,0,0,509,508,0,1018,38,0
1,0,0,0,0,509,507,0,1018,38,0
2,0,0,0,0,508,507,0,1018,38,0
3,0,0,0,0,509,507,0,1018,38,0
4,0,0,0,0,509,508,0,1018,38,0
5,0,0,0,0,509,508,0,1018,38,1
6,0,0,0,0,508,509,0,1018,38,1
7,0,0,0,0,508,510,0,1018,39,0
8,0,0,0,0,507,512,0,1018,38,0
9,0,0,0,0,509,511,0,1018,38,0
10,0,0,0,0,506,512,0,1018,38,0
11,0,0,0,0,509,512,0,1018,38,0
12,0,0,0,0,508,509,0,1018,38,0
13,0,0,0,0,508,510,0,1018,38,0
14,0,0,0,0,511,509,0,1018,38,1
15,0,0,0,0,509,508,0,1018,39,0
0,0,0,0,0,510,507,0,1018,38,0
1,0,0,0,0,510,507,0,1018,38,0
2,0,0,0,0,510,508,0,1018,38,0
3,0,0,0,0,511,509,0,1018,38,0
4,0,0,0,0,512,508,0,1018,38,0
5,0,0,0,0,510,506,0,1018,38,0
6,0,0,0,0,507,507,0,1018,38,1
7,0,0,0,0,510,506,0,1018,39,0
8,0,0,0,0,508,508,0,1018,38,0
9,0,0,0,0,508,508,0,1018,38,0
10,0,0,0,0,507,509,0,1018,38,0
11,0,0,0,0,508,508,0,1018,38,0
12,0,0,0,0,508,508,0,1018,38,0
13,0,0,0,0,509,509,0,1018,38,0
14,0,0,0,0,508,510,0,1018,38,1
15,0,0,0,0,510,510,0,1018,39,0
0,0,0,0,0,506,509,0,1018,38,0
1,0,0,0,0,511,509,0,1018,38,0
2,0,0,0,0,509,509,0,1018,38,0
3,0,0,0,0,508,509,0,1018,38,0
4,0,0,0,0,508,509,0,1018,38,0
5,0,0,0,0,509,508,0,1018,38,0
6,0,0,0,0,511,508,0,1018,38,1
7,0,0,0,0,511,509,0,1018,39,0
8,0,0,0,0,507,509,0,1018,38,0
9,0,0,0,0,508,508,0,1018,38,0
10,0,0,0,0,510,506,0,1017,38,0
11,0,0,0,0,509,507,0,248,38,0
12,0,0,0,0,509,508,0,0,38,0
13,0,0,0,0,508,507,0,0,38,0
14,0,0,0,0,507,508,0,0,38,1
15,0,0,0,0,509,507,0,0,39,0
0,0,0,0,0,511,508,0,0,38,0
1,0,0,0,0,512,510,0,0,38,0
2,0,0,0,0,509,510,0,0,38,0
3,0,0,0,0,509,510,0,0,38,0
4,0,0,0,0,509,509,0,0,38,0
5,0,0,0,0,509,508,0,0,38,0
6,0,0,0,0,510,508,0,0,38,0
7,0,0,0,0,508,509,0,415,39,0
8,0,0,0,0,509,509,0,742,38,0
9,0,0,0,0,508,508,0,951,38,0
10,0,0,0,0,511,508,0,1017,38,0
11,0,0,0,0,511,508,0,1018,38,0
12,0,0,0,0,509,507,0,1018,38,0
13,0,0,0,0,508,507,0,1017,38,0
14,0,0,0,0,508,508,0,1018,38,0
15,0,0,0,0,510,508,0,1018,39,0
0,0,0,0,0,511,508,0,1017,38,0
1,0,0,0,0,508,506,0,1018,38,0
2,0,0,0,0,508,507,0,1017,38,0
3,0,0,0,0,510,507,0,1018,38,0
4,0,0,0,0,510,505,0,1018,38,0
5,0,0,0,0,511,505,0,1018,38,0
6,0,0,0,0,508,504,0,1018,38,0
7,0,0,0,0,508,505,0,1018,39,0
8,0,0,0,0,509,505,0,1018,38,1
9,0,0,0,0,509,508,0,1017,38,0
10,0,0,0,0,511,507,0,1017,38,0
11,0,0,0,0,509,506,0,659,38,0
12,0,0,0,0,508,506,0,319,38,0
13,0,0,0,0,507,506,0,0,38,0
14,0,0,0,0,508,507,0,0,38,0
15,0,0,0,0,510,507,0,0,39,0
0,0,0,0,0,507,506,0,0,38,1
1,0,0,0,0,509,506,0,0,38,0
2,0,0,0,0,508,507,0,0,38,0
3,0,0,0,0,510,508,0,0,38,0
4,0,0,0,0,511,510,0,0,38,0
5,0,0,0,0,508,510,0,0,38,0
6,0,0,0,0,508,510,0,0,38,0
7,0,0,0,0,509,510,0,0,39,0
8,0,0,0,0,509,509,0,0,38,1
9,0,0,0,0,511,508,0,0,38,1
10,0,0,0,0,508,508,0,0,38,0
11,0,0,0,0,510,506,0,0,38,0
12,0,0,0,0,509,505,0,0,38,0
13,0,0,0,0,511,506,0,0,38,0
14,0,0,0,0,509,507,0,0,38,0
15,0,0,0,0,507,508,0,0,39,0
0,0,0,0,0,508,509,0,0,38,1
1,0,0,0,0,508,508,0,0,38,1
2,0,0,0,0,509,507,0,0,38,0
3,0,0,0,0,510,506,0,0,38,0
4,0,0,0,0,508,506,0,0,38,0
5,0,0,0,0,508,507,0,0,38,0
6,0,0,0,0,508,507,0,0,38,0
7,0,0,0,0,510,506,0,0,39,0
8,0,0,0,0,509,506,0,0,38,1
9,0,0,0,0,508,507,0,0,38,1
10,0,0,0,0,510,507,0,0,38,0
11,0,0,0,0,509,505,0,0,38,0
12,0,0,0,0,507,506,0,0,38,0
13,0,0,0,0,508,507,0,0,38,0
14,0,0,0,0,508,505,0,0,38,0
15,0,0,0,0,508,505,0,0,39,0
0,0,0,0,0,509,504,0,0,38,0
1,0,0,0,0,507,505,0,0,38,1
2,0,0,0,0,510,506,0,0,38,0
3,0,0,0,0,507,505,0,0,38,0
4,0,0,0,0,507,506,0,0,38,0
5,0,0,0,0,511,506,0,0,38,0
6,0,0,0,0,509,507,0,0,38,0
7,0,0,0,0,511,506,0,0,39,0
8,0,0,0,0,511,507,0,0,38,0
9,0,0,0,0,508,507,0,0,38,1
10,0,0,0,0,510,506,0,0,38,1
11,0,0,0,0,508,505,0,0,38,0
12,0,0,0,0,511,507,0,0,38,0
13,0,0,0,0,510,508,0,0,38,0
14,0,0,0,0,508,508,0,0,38,0
15,0,0,0,0,507,506,0,0,39,0
0,0,0,0,0,508,506,0,0,38,0
1,0,0,0,0,509,505,0,0,38,1
2,0,0,0,0,504,508,0,0,38,0
3,0,0,0,0,509,508,0,0,38,1
4,0,0,0,0,508,508,0,0,38,0
5,0,0,0,0,510,507,0,430,38,0
6,0,0,0,0,511,508,0,815,38,0
7,0,0,0,0,509,509,0,1018,39,0
8,0,0,0,0,512,507,0,1018,38,0
9,0,0,0,0,510,507,0,1018,38,0
10,0,0,0,0,511,508,0,1018,38,1
11,0,0,0,0,512,508,0,1018,38,1
12,0,0,0,0,509,507,0,1018,38,0
13,0,0,0,0,508,507,0,1018,38,0
14,0,0,0,0,509,505,0,1018,38,0
15,0,0,0,0,508,506,0,1018,39,0
0,0,0,0,0,509,508,0,1018,38,0
1,0,0,0,0,508,508,0,1018,38,0
2,0,0,0,0,509,507,0,1018,38,0
3,0,0,0,0,509,507,0,1018,38,1
4,0,0,0,0,510,509,0,1018,38,1
5,0,0,0,0,511,509,0,1018,38,0
6,0,0,0,0,506,508,0,1018,38,0
7,0,0,0,0,509,509,0,1018,39,0
8,0,0,0,0,511,508,0,1018,38,0
9,0,0,0,0,508,511,0,1018,38,0
10,0,0,0,0,509,510,0,1018,38,0
11,0,0,0,0,509,508,0,1018,38,1
12,0,0,0,0,506,506,0,1018,38,1
13,0,0,0,0,509,506,0,1018,38,0
14,0,0,0,0,508,505,0,1018,38,0
15,0,0,0,0,510,505,0,1018,39,0
0,0,0,0,0,509,507,0,1018,38,0
1,0,0,0,0,511,505,0,1018,38,0
2,0,0,0,0,509,505,0,1018,38,0
3,0,0,0,0,511,507,0,1018,38,1
4,0,0,0,0,509,508,0,1018,38,1
5,0,0,0,0,508,508,0,1018,38,1
6,0,0,0,0,508,507,0,1018,38,0
7,0,0,0,0,509,507,0,1018,39,0
8,0,0,0,0,510,506,0,1018,38,0
9,0,0,0,0,511,507,0,1018,38,0
10,0,0,0,0,509,508,0,1018,38,0
11,0,0,0,0,509,508,0,1018,38,1
12,0,0,0,0,510,508,0,1018,38,1
13,0,0,0,0,510,507,0,1018,38,1
14,0,0,0,0,512,505,0,1018,38,0
15,0,0,0,0,508,507,0,1018,39,0
0,0,0,0,0,511,508,0,1018,38,0
1,0,0,0,0,510,507,0,1018,38,0
2,0,0,0,0,509,508,0,1018,38,0
3,0,0,0,0,512,508,0,1018,38,0
4,0,0,0,0,506,510,0,1018,38,1
5,0,0,0,0,508,508,0,1018,38,1
6,0,0,0,0,508,508,0,1018,38,1
7,0,0,0,0,509,507,0,1018,39,0
8,0,0,0,0,511,508,0,1018,38,0
9,0,0,0,0,510,508,0,1018,38,0
10,0,0,0,0,509,509,0,1018,38,0
11,0,0,0,0,508,510,0,1018,38,1
12,0,0,0,0,510,509,0,1018,38,1
13,0,0,0,0,511,508,0,1018,38,1
14,0,0,0,0,508,508,0,1018,38,1
15,0,0,0,0,506,507,0,1018,39,0
0,0,0,0,0,507,506,0,1018,38,0
1,0,0,0,0,511,507,0,1018,38,0
2,0,0,0,0,510,507,0,1018,38,0
3,0,0,0,0,509,507,0,1018,38,0
4,0,0,0,0,510,507,0,659,38,1
5,0,0,0,0,508,506,0,346,38,1
6,0,0,0,0,511,504,0,5,38,1
7,0,0,0,0,511,504,0,0,39,0
8,0,0,0,0,507,505,0,0,38,0
9,0,0,0,0,510,504,0,0,38,0
10,0,0,0,0,507,504,0,0,38,0
11,0,0,0,0,507,506,0,0,38,0
12,0,0,0,0,509,506,0,0,38,1
13,0,0,0,0,508,507,0,0,38,1
14,0,0,0,0,510,510,0,0,38,1
15,0,0,0,0,510,508,0,146,39,0
0,0,0,0,0,511,510,0,454,38,0
1,0,0,0,0,509,510,0,764,38,0
2,0,0,0,0,509,508,0,1018,38,0
3,0,0,0,0,509,509,0,1018,38,0
4,0,0,0,0,510,510,0,1018,38,0
5,0,0,0,0,508,509,0,1018,38,1
6,0,0,0,0,511,509,0,1018,38,1
7,0,0,0,0,508,509,0,1018,39,0
8,0,0,0,0,508,509,0,1018,38,0
9,0,0,0,0,509,509,0,1018,38,0
10,0,0,0,0,509,508,0,1018,38,0
11,0,0,0,0,511,509,0,1018,38,0
12,0,0,0,0,509,509,0,1018,38,0
13,0,0,0,0,508,510,0,1018,38,1
14,0,0,0,0,509,510,0,1018,38,1
15,0,0,0,0,510,507,0,1018,39,0
0,0,0,0,0,510,507,0,1018,38,0
1,0,0,0,0,506,509,0,510,38,0
2,0,0,0,0,508,510,0,166,38,0
3,0,0,0,0,509,512,0,0,38,0
4,0,0,0,0,510,511,0,0,38,0
5,0,0,0,0,511,512,0,0,38,0
6,0,0,0,0,510,512,0,48,38,1
7,0,0,0,0,508,511,0,11,39,1
8,0,0,0,0,508,511,0,107,38,0
9,0,0,0,0,511,509,0,245,38,0
10,0,0,0,0,508,509,0,381,38,0
11,0,0,0,0,507,509,0,633,38,0
12,0,0,0,0,509,508,0,964,38,0
13,0,0,0,0,510,508,0,1018,38,0
14,0,0,0,0,508,507,0,1018,38,1
15,0,0,0,0,508,507,0,1018,39,0
0,0,0,0,0,507,508,0,1018,38,0
1,0,0,0,0,511,510,0,1018,38,0
2,0,0,0,0,510,510,0,1018,38,0
3,0,0,0,0,510,510,0,1018,38,0
4,0,0,0,0,513,509,0,1018,38,0
5,0,0,0,0,509,508,0,875,38,0
6,0,0,0,0,510,509,0,550,38,1
7,0,0,0,0,508,511,0,207,39,1
8,0,0,0,0,508,510,0,0,38,0
9,0,0,0,0,510,508,0,0,38,0
10,0,0,0,0,506,507,0,0,38,0
11,0,0,0,0,511,508,0,0,38,0
12,0,0,0,0,509,508,0,0,38,0
13,0,0,0,0,510,509,0,0,38,0
14,0,0,0,0,509,507,0,0,38,1
15,0,0,0,0,509,508,0,0,39,1
0,0,0,0,0,508,508,0,0,38,0
1,0,0,0,0,509,506,0,0,38,0
2,0,0,0,0,507,507,0,0,38,0
3,0,0,0,0,511,507,0,0,38,0
4,0,0,0,0,506,508,0,0,38,0
5,0,0,0,0,507,508,0,0,38,0
6,0,0,0,0,509,507,0,0,38,0
7,0,0,0,0,508,504,0,0,39,0
8,0,0,0,0,509,505,0,0,38,0
9,0,0,0,0,508,505,0,0,38,0
10,0,0,0,0,506,504,0,0,38,0
11,0,0,0,0,510,502,0,0,38,0
12,0,0,0,0,508,505,0,0,38,0
13,0,0,0,0,511,506,0,0,38,0
14,0,0,0,0,509,506,0,0,38,0
15,0,0,0,0,510,505,0,0,39,0
0,0,0,0,0,509,504,0,0,38,0
1,0,0,0,0,510,504,0,0,38,0
2,0,0,0,0,509,504,0,0,38,0
3,0,0,0,0,508,505,0,0,38,0
4,0,0,0,0,508,505,0,0,38,0
5,0,0,0,0,508,506,0,0,38,0
6,0,0,0,0,509,506,0,0,38,0
7,0,0,0,0,511,507,0,0,39,0
8,0,0,0,0,509,508,0,0,38,0
9,0,0,0,0,510,508,0,0,38,0
10,0,0,0,0,508,508,0,0,38,0
11,0,0,0,0,508,508,0,0,38,0
12,0,0,0,0,509,507,0,0,38,0
13,0,0,0,0,508,508,0,0,38,0
14,0,0,0,0,510,508,0,0,38,0
15,0,0,0,0,509,508,0,0,39,0
0,0,0,0,0,510,508,0,0,38,0
1,0,0,0,0,509,509,0,0,38,0
2,0,0,0,0,507,510,0,0,38,0
3,0,0,0,0,508,509,0,0,38,0
4,0,0,0,0,509,508,0,0,38,0
5,0,0,0,0,510,509,0,0,38,0
6,0,0,0,0,511,508,0,0,38,0
7,0,0,0,0,509,507,0,0,39,0
8,0,0,0,0,510,506,0,0,38,0
9,0,0,0,0,508,506,0,0,38,1
10,0,0,0,0,512,506,0,0,38,0
11,0,0,0,0,511,507,0,0,38,0
12,0,0,0,0,508,508,0,0,38,0
13,0,0,0,0,509,509,0,0,38,0
14,0,0,0,0,508,509,0,0,38,0
15,0,0,0,0,509,510,0,496,39,0
0,0,0,0,0,510,511,0,945,38,1
1,0,0,0,0,509,512,0,1018,38,1
2,0,0,0,0,508,511,0,1018,38,0
3,0,0,0,0,509,509,0,1018,38,0
4,0,0,0,0,508,508,0,1018,38,0
5,0,0,0,0,509,507,0,1018,38,0
6,0,0,0,0,509,505,0,1018,38,0
7,0,0,0,0,510,505,0,1018,39,0
8,0,0,0,0,509,507,0,1018,38,0
9,0,0,0,0,510,506,0,1018,38,0
10,0,0,0,0,511,506,0,1018,38,0
11,0,0,0,0,510,507,0,1018,38,0
12,0,0,0,0,509,509,0,1018,38,0
13,0,0,0,0,507,508,0,1018,38,0
14,0,0,0,0,509,506,0,1018,38,0
15,0,0,0,0,510,508,0,1018,39,0
0,0,0,0,0,510,509,0,1018,38,0
1,0,0,0,0,508,510,0,1018,38,1
2,0,0,0,0,511,512,0,1018,38,0
3,0,0,0,0,510,509,0,1018,38,0
4,0,0,0,0,510,507,0,750,38,0
5,0,0,0,0,508,508,0,584,38,0
6,0,0,0,0,509,508,0,490,38,0
7,0,0,0,0,509,510,0,460,39,0
8,0,0,0,0,509,510,0,462,38,0
9,0,0,0,0,507,511,0,652,38,1
10,0,0,0,0,510,512,0,745,38,0
11,0,0,0,0,509,510,0,731,38,1
12,0,0,0,0,510,508,0,619,38,0
13,0,0,0,0,507,508,0,344,38,0
14,0,0,0,0,510,508,0,0,38,0
15,0,0,0,0,508,508,0,0,39,0
0,0,0,0,0,509,506,0,0,38,0
1,0,0,0,0,511,507,0,0,38,0
2,0,0,0,0,511,507,0,0,38,0
3,0,0,0,0,510,506,0,0,38,1
4,0,0,0,0,507,505,0,0,38,0
5,0,0,0,0,506,505,0,0,38,0
6,0,0,0,0,508,507,0,0,38,0
7,0,0,0,0,508,507,0,0,39,0
8,0,0,0,0,510,508,0,0,38,0
9,0,0,0,0,509,508,0,0,38,0
10,0,0,0,0,510,509,0,0,38,0
11,0,0,0,0,510,508,0,0,38,1
12,0,0,0,0,509,508,0,0,38,0
13,0,0,0,0,509,508,0,0,38,0
14,0,0,0,0,509,508,0,0,38,0
15,0,0,0,0,511,507,0,0,39,0
0,0,0,0,0,508,507,0,0,38,0
1,0,0,0,0,510,508,0,0,38,0
2,0,0,0,0,511,508,0,0,38,0
3,0,0,0,0,510,508,0,0,38,1
4,0,0,0,0,508,508,0,0,38,1
5,0,0,0,0,508,509,0,0,38,0
6,0,0,0,0,507,509,0,0,38,0
7,0,0,0,0,509,508,0,0,39,0
8,0,0,0,0,510,508,0,0,38,0
9,0,0,0,0,508,510,0,0,38,0
10,0,0,0,0,510,509,0,0,38,0
11,0,0,0,0,508,508,0,0,38,1
12,0,0,0,0,510,507,0,0,38,1
13,0,0,0,0,507,508,0,0,38,0
14,0,0,0,0,509,508,0,0,38,0
15,0,0,0,0,509,506,0,0,39,0
0,0,0,0,0,507,507,0,0,38,0
1,0,0,0,0,510,507,0,0,38,0
2,0,0,0,0,509,508,0,0,38,0
3,0,0,0,0,510,509,0,0,38,1
4,0,0,0,0,507,508,0,0,38,1
5,0,0,0,0,511,506,0,0,38,1
6,0,0,0,0,509,507,0,0,38,0
7,0,0,0,0,509,505,0,0,39,0
8,0,0,0,0,510,505,0,0,38,0
9,0,0,0,0,508,504,0,0,38,0
10,0,0,0,0,511,505,0,0,38,0
11,0,0,0,0,508,507,0,0,38,1
12,0,0,0,0,508,508,0,0,38,1
13,0,0,0,0,510,508,0,0,38,1
14,0,0,0,0,509,508,0,0,38,1
15,0,0,0,0,511,508,0,0,39,0
0,0,0,0,0,507,507,0,0,38,0
1,0,0,0,0,509,508,0,0,38,0
2,0,0,0,0,508,508,0,0,38,0
3,0,0,0,0,509,508,0,0,38,1
4,0,0,0,0,508,508,0,0,38,1
5,0,0,0,0,509,508,0,0,38,1
6,0,0,0,0,508,508,0,0,38,1
7,0,0,0,0,509,508,0,0,39,0
8,0,0,0,0,508,507,0,0,38,0
9,0,0,0,0,507,507,0,0,38,0
10,0,0,0,0,511,505,0,0,38,0
11,0,0,0,0,507,506,0,0,38,1
12,0,0,0,0,511,507,0,0,38,1
13,0,0,0,0,510,505,0,0,38,1
14,0,0,0,0,509,505,0,0,38,1
15,0,0,0,0,508,505,0,0,39,0
0,0,0,0,0,508,505,0,0,38,0
1,0,0,0,0,509,506,0,0,38,0
2,0,0,0,0,508,507,0,0,38,0
3,0,0,0,0,508,507,0,0,38,0
4,0,0,0,0,512,507,0,0,38,0
5,0,0,0,0,510,508,0,0,38,1
6,0,0,0,0,508,508,0,0,38,1
7,0,0,0,0,508,507,0,0,39,0
8,0,0,0,0,510,506,0,0,38,0
9,0,0,0,0,512,506,0,0,38,0
10,0,0,0,0,507,506,0,0,38,0
11,0,0,0,0,509,507,0,0,38,0
12,0,0,0,0,507,507,0,0,38,1
13,0,0,0,0,507,507,0,0,38,1
14,0,0,0,0,508,507,0,0,38,1
15,0,0,0,0,507,507,0,0,39,0
0,0,0,0,0,509,508,0,0,38,0
1,0,0,0,0,510,508,0,0,38,0
2,0,0,0,0,507,508,0,0,38,0
3,0,0,0,0,509,508,0,0,38,0
4,0,0,0,0,508,508,0,0,38,0
5,0,0,0,0,510,507,0,0,38,1
6,0,0,0,0,509,508,0,0,38,1
7,0,0,0,0,508,508,0,0,39,0
8,0,0,0,0,512,508,0,0,38,0
9,0,0,0,0,507,508,0,0,38,0
10,0,0,0,0,507,510,0,0,38,0
11,0,0,0,0,510,509,0,0,38,0
12,0,0,0,0,509,510,0,0,38,1
13,0,0,0,0,509,508,0,0,38,0
14,0,0,0,0,506,511,0,0,38,1
15,0,0,0,0,509,510,0,0,39,1
0,0,0,0,0,509,508,0,0,38,0
1,0,0,0,0,511,510,0,0,38,0
2,0,0,0,0,510,508,0,0,38,0
3,0,0,0,0,508,508,0,0,38,0
4,0,0,0,0,511,508,0,0,38,0
5,0,0,0,0,510,508,0,0,38,0
6,0,0,0,0,506,507,0,0,38,1
7,0,0,0,0,508,506,0,0,39,0
8,0,0,0,0,508,506,0,0,38,0
9,0,0,0,0,508,508,0,0,38,0
10,0,0,0,0,508,509,0,0,38,0
11,0,0,0,0,509,509,0,0,38,0
12,0,0,0,0,510,508,0,0,38,0
13,0,0,0,0,508,509,0,0,38,0
14,0,0,0,0,510,509,0,0,38,1
15,0,0,0,0,510,508,0,0,39,1
0,0,0,0,0,509,508,0,0,38,0
1,0,0,0,0,510,507,0,0,38,0
2,0,0,0,0,510,507,0,0,38,0
3,0,0,0,0,508,508,0,0,38,0
4,0,0,0,0,509,508,0,0,38,0
5,0,0,0,0,509,509,0,0,38,0
6,0,0,0,0,510,508,0,0,38,1
7,0,0,0,0,508,509,0,0,39,1
8,0,0,0,0,511,509,0,0,38,0
9,0,0,0,0,508,509,0,0,38,0
10,0,0,0,0,509,510,0,0,38,0
11,0,0,0,0,509,509,0,0,38,0
12,0,0,0,0,507,507,0,0,38,0
13,0,0,0,0,511,508,0,0,38,0
14,0,0,0,0,510,508,0,0,38,1
15,0,0,0,0,510,508,0,0,39,1
0,0,0,0,0,510,506,0,0,38,1
1,0,0,0,0,506,507,0,0,38,0
2,0,0,0,0,508,508,0,0,38,0
3,0,0,0,0,509,508,0,0,38,0
4,0,0,0,0,508,508,0,0,38,0
5,0,0,0,0,509,508,0,0,38,0
6,0,0,0,0,510,508,0,0,38,0
7,0,0,0,0,509,508,0,0,39,1
8,0,0,0,0,508,510,0,0,38,1
9,0,0,0,0,510,511,0,0,38,0
10,0,0,0,0,510,512,0,0,38,0
11,0,0,0,0,508,513,0,0,38,0
12,0,0,0,0,510,511,0,0,38,0
13,0,0,0,0,508,509,0,0,38,0
14,0,0,0,0,508,508,0,262,38,0
15,0,0,0,0,510,508,0,355,39,0
0,0,0,0,0,511,508,0,447,38,1
1,0,0,0,0,508,507,0,399,38,0
2,0,0,0,0,509,507,0,360,38,0
3,0,0,0,0,507,507,0,435,38,0
4,0,0,0,0,510,509,0,671,38,0
5,0,0,0,0,509,510,0,1014,38,0
6,0,0,0,0,510,510,0,1018,38,0
7,0,0,0,0,508,512,0,1018,39,0
8,0,0,0,0,511,511,0,1018,38,0
9,0,0,0,0,510,511,0,1018,38,1
10,0,0,0,0,508,511,0,1018,38,0
11,0,0,0,0,508,510,0,1018,38,0
12,0,0,0,0,508,509,0,1018,38,0
13,0,0,0,0,509,508,0,1018,38,0
14,0,0,0,0,510,505,0,1018,38,0
15,0,0,0,0,509,507,0,1018,39,0
0,0,0,0,0,510,508,0,1018,38,0
1,0,0,0,0,508,507,0,1018,38,0
2,0,0,0,0,507,507,0,1018,38,0
3,0,0,0,0,509,507,0,1018,38,0
4,0,0,0,0,506,508,0,1018,38,0
5,0,0,0,0,509,508,0,1018,38,0
6,0,0,0,0,510,509,0,1018,38,0
7,0,0,0,0,508,509,0,1018,39,0
8,0,0,0,0,511,508,0,1018,38,0
9,0,0,0,0,510,508,0,1018,38,1
10,0,0,0,0,507,507,0,1018,38,0
11,0,0,0,0,510,507,0,1018,38,0
12,0,0,0,0,508,505,0,1018,38,0
13,0,0,0,0,512,507,0,1018,38,0
14,0,0,0,0,509,508,0,1018,38,0
15,0,0,0,0,511,508,0,1018,39,0
0,0,0,0,0,510,506,0,1018,38,0
1,0,0,0,0,510,507,0,1018,38,1
2,0,0,0,0,512,509,0,1018,38,0
3,0,0,0,0,509,509,0,1018,38,0
4,0,0,0,0,508,509,0,1018,38,0
5,0,0,0,0,508,508,0,1018,38,0
6,0,0,0,0,511,507,0,1018,38,0
7,0,0,0,0,510,506,0,1018,39,0
8,0,0,0,0,508,505,0,1018,38,0
9,0,0,0,0,508,506,0,1018,38,0
10,0,0,0,0,508,505,0,806,38,0
11,0,0,0,0,508,507,0,465,38,0
12,0,0,0,0,509,508,0,111,38,0
13,0,0,0,0,504,509,0,0,38,0
14,0,0,0,0,508,509,0,0,38,0
15,0,0,0,0,507,509,0,0,39,0
0,0,0,0,0,511,509,0,0,38,0
1,0,0,0,0,511,510,0,0,38,0
2,0,0,0,0,508,510,0,0,38,0
3,0,0,0,0,511,509,0,0,38,1
4,0,0,0,0,511,507,0,0,38,0
5,0,0,0,0,510,506,0,0,38,0
6,0,0,0,0,510,507,0,0,38,0
7,0,0,0,0,509,508,0,0,39,0
8,0,0,0,0,511,509,0,0,38,0
9,0,0,0,0,510,508,0,0,38,0
10,0,0,0,0,509,508,0,0,38,0
11,0,0,0,0,510,509,0,0,38,0
12,0,0,0,0,507,509,0,0,38,0
13,0,0,0,0,507,507,0,0,38,0
14,0,0,0,0,509,507,0,0,38,0
15,0,0,0,0,508,509,0,0,39,0
0,0,0,0,0,508,509,0,0,38,0
1,0,0,0,0,508,509,0,0,38,0
2,0,0,0,0,508,509,0,0,38,0
3,0,0,0,0,510,509,0,97,38,1
4,0,0,0,0,509,509,0,549,38,0
5,0,0,0,0,513,508,0,912,38,0
6,0,0,0,0,508,508,0,1018,38,0
7,0,0,0,0,509,507,0,1018,39,0
8,0,0,0,0,510,508,0,1018,38,0
9,0,0,0,0,511,508,0,1018,38,0
10,0,0,0,0,511,508,0,1018,38,0
11,0,0,0,0,510,507,0,1018,38,1
12,0,0,0,0,508,507,0,1018,38,1
13,0,0,0,0,510,506,0,1018,38,0
14,0,0,0,0,508,505,0,1018,38,0
15,0,0,0,0,508,505,0,1018,39,0
0,0,0,0,0,509,506,0,1018,38,0
1,0,0,0,0,509,506,0,1018,38,0
2,0,0,0,0,508,506,0,1018,38,0
3,0,0,0,0,511,505,0,1018,38,1
4,0,0,0,0,510,508,0,1018,38,1
5,0,0,0,0,510,508,0,1018,38,0
6,0,0,0,0,508,508,0,1018,38,0
7,0,0,0,0,510,510,0,1018,39,0
8,0,0,0,0,511,508,0,1018,38,0
9,0,0,0,0,509,509,0,1018,38,0
10,0,0,0,0,508,510,0,1018,38,0
11,0,0,0,0,510,509,0,1018,38,1
12,0,0,0,0,510,510,0,1018,38,1
13,0,0,0,0,508,509,0,1018,38,0
14,0,0,0,0,511,510,0,1018,38,0
15,0,0,0,0,510,511,0,1018,39,0
0,0,0,0,0,507,510,0,1018,38,0
1,0,0,0,0,506,508,0,1018,38,0
2,0,0,0,0,510,508,0,1018,38,0
3,0,0,0,0,512,508,0,1018,38,0
4,0,0,0,0,510,508,0,1018,38,1
5,0,0,0,0,509,508,0,1018,38,1
6,0,0,0,0,510,507,0,1018,38,1
7,0,0,0,0,509,507,0,1018,39,0
8,0,0,0,0,511,508,0,1018,38,0
9,0,0,0,0,510,508,0,1018,38,0
10,0,0,0,0,508,508,0,1018,38,0
11,0,0,0,0,509,509,0,1018,38,1
12,0,0,0,0,511,508,0,1018,38,1
13,0,0,0,0,509,509,0,1018,38,1
14,0,0,0,0,506,510,0,1018,38,1
15,0,0,0,0,510,510,0,1018,39,0
0,0,0,0,0,506,508,0,1018,38,0
1,0,0,0,0,510,508,0,1018,38,0
2,0,0,0,0,511,508,0,1018,38,0
3,0,0,0,0,510,509,0,1018,38,1
4,0,0,0,0,509,508,0,1018,38,1
5,0,0,0,0,509,505,0,1018,38,1
6,0,0,0,0,509,504,0,1018,38,1
7,0,0,0,0,513,504,0,1018,39,0
8,0,0,0,0,509,506,0,1018,38,0
9,0,0,0,0,512,507,0,1018,38,0
10,0,0,0,0,507,507,0,1018,38,0
11,0,0,0,0,509,509,0,1018,38,0
12,0,0,0,0,509,508,0,1018,38,1
13,0,0,0,0,510,508,0,1018,38,1
14,0,0,0,0,510,507,0,1018,38,1
15,0,0,0,0,508,507,0,1018,39,0
0,0,0,0,0,508,508,0,1018,38,0
1,0,0,0,0,510,507,0,1018,38,0
2,0,0,0,0,510,507,0,1018,38,0
3,0,0,0,0,508,508,0,1018,38,0
4,0,0,0,0,508,508,0,1018,38,1
5,0,0,0,0,508,507,0,1018,38,1
6,0,0,0,0,510,507,0,1018,38,1
7,0,0,0,0,510,507,0,1018,39,0
8,0,0,0,0,511,507,0,1018,38,0
9,0,0,0,0,508,507,0,1018,38,0
10,0,0,0,0,508,508,0,1018,38,0
11,0,0,0,0,510,508,0,1018,38,0
12,0,0,0,0,510,508,0,1018,38,0
13,0,0,0,0,511,508,0,1018,38,1
14,0,0,0,0,510,508,0,1018,38,1
15,0,0,0,0,511,508,0,1018,39,0
0,0,0,0,0,510,507,0,1018,38,0
1,0,0,0,0,509,508,0,1018,38,0
2,0,0,0,0,508,508,0,1018,38,0
3,0,0,0,0,507,506,0,1018,38,0
4,0,0,0,0,509,507,0,1018,38,0
5,0,0,0,0,510,507,0,1018,38,0
6,0,0,0,0,510,508,0,1018,38,1
7,0,0,0,0,507,508,0,1018,39,1
8,0,0,0,0,510,507,0,1018,38,0
9,0,0,0,0,511,507,0,1018,38,0
10,0,0,0,0,512,506,0,1018,38,0
11,0,0,0,0,508,505,0,1018,38,0
12,0,0,0,0,510,505,0,1018,38,0
13,0,0,0,0,510,505,0,1018,38,0
14,0,0,0,0,510,506,0,1018,38,1
15,0,0,0,0,511,505,0,1018,39,0
0,0,0,0,0,508,506,0,1018,38,0
1,0,0,0,0,509,507,0,1018,38,0
2,0,0,0,0,509,508,0,1018,38,0
3,0,0,0,0,509,509,0,1017,38,0
4,0,0,0,0,511,508,0,772,38,0
5,0,0,0,0,509,508,0,588,38,0
6,0,0,0,0,507,507,0,473,38,1
7,0,0,0,0,508,507,0,504,39,1
8,0,0,0,0,510,505,0,583,38,0
9,0,0,0,0,510,506,0,600,38,0
10,0,0,0,0,508,508,0,635,38,0
11,0,0,0,0,509,509,0,817,38,0
12,0,0,0,0,510,509,0,958,38,0
13,0,0,0,0,509,509,0,1018,38,0
14,0,0,0,0,510,510,0,1018,38,1
15,0,0,0,0,508,511,0,1018,39,1
0,0,0,0,0,508,509,0,1018,38,0
1,0,0,0,0,510,510,0,1018,38,0
2,0,0,0,0,509,508,0,1018,38,0
3,0,0,0,0,512,509,0,1018,38,0
4,0,0,0,0,507,508,0,1018,38,0
5,0,0,0,0,509,508,0,1018,38,0
6,0,0,0,0,510,507,0,1018,38,1
7,0,0,0,0,508,505,0,1018,39,1
8,0,0,0,0,510,507,0,1018,38,0
9,0,0,0,0,509,507,0,1018,38,0
10,0,0,0,0,508,508,0,1018,38,0
11,0,0,0,0,511,509,0,1018,38,0
12,0,0,0,0,511,507,0,1018,38,0
13,0,0,0,0,511,508,0,1018,38,0
14,0,0,0,0,508,506,0,1018,38,1
15,0,0,0,0,508,507,0,1018,39,1
0,0,0,0,0,509,508,0,1018,38,1
1,0,0,0,0,509,508,0,1018,38,0
2,0,0,0,0,511,509,0,1018,38,0
3,0,0,0,0,510,510,0,1018,38,0
4,0,0,0,0,510,510,0,1018,38,0
5,0,0,0,0,508,510,0,1018,38,0
6,0,0,0,0,509,509,0,1018,38,0
7,0,0,0,0,512,509,0,1018,39,0
8,0,0,0,0,510,509,0,1018,38,0
9,0,0,0,0,512,508,0,1018,38,0
10,0,0,0,0,510,507,0,1018,38,0
11,0,0,0,0,511,506,0,1018,38,0
12,0,0,0,0,509,506,0,1018,38,0
13,0,0,0,0,508,509,0,1018,38,0
14,0,0,0,0,509,509,0,1018,38,0
15,0,0,0,0,510,510,0,1018,39,0
0,0,0,0,0,511,512,0,1018,38,0
1,0,0,0,0,508,513,0,1018,38,0
2,0,0,0,0,506,512,0,1018,38,0
3,0,0,0,0,509,510,0,1018,38,0
4,0,0,0,0,509,511,0,1018,38,0
5,0,0,0,0,506,510,0,1018,38,0
6,0,0,0,0,510,510,0,1018,38,0
7,0,0,0,0,509,510,0,1018,39,0
8,0,0,0,0,507,510,0,1018,38,0
9,0,0,0,0,510,509,0,1018,38,1
10,0,0,0,0,512,509,0,1018,38,0
11,0,0,0,0,512,509,0,1018,38,0
12,0,0,0,0,510,509,0,1018,38,0
13,0,0,0,0,511,508,0,1018,38,0
14,0,0,0,0,509,508,0,1018,38,0
15,0,0,0,0,510,508,0,1018,39,0
0,0,0,0,0,508,508,0,1018,38,1
1,0,0,0,0,509,508,0,1018,38,0
2,0,0,0,0,508,509,0,1018,38,0
3,0,0,0,0,509,511,0,1018,38,0
4,0,0,0,0,509,509,0,1018,38,0
5,0,0,0,0,511,510,0,1018,38,0
6,0,0,0,0,507,510,0,1018,38,0
7,0,0,0,0,508,510,0,1018,39,0
8,0,0,0,0,508,508,0,1018,38,0
9,0,0,0,0,510,508,0,1018,38,0
10,0,0,0,0,509,509,0,1018,38,0
11,0,0,0,0,508,507,0,1018,38,0
12,0,0,0,0,508,506,0,1018,38,0
13,0,0,0,0,510,505,0,1018,38,0
14,0,0,0,0,511,506,0,1018,38,0
15,0,0,0,0,509,508,0,1018,39,0
0,0,0,0,0,509,507,0,1018,38,0
1,0,0,0,0,510,507,0,1018,38,0
2,0,0,0,0,509,508,0,1018,38,0
3,0,0,0,0,508,507,0,1018,38,0
4,0,0,0,0,508,507,0,1018,38,0
5,0,0,0,0,506,507,0,1018,38,0
6,0,0,0,0,511,507,0,1018,38,0
7,0,0,0,0,509,508,0,1018,39,0
8,0,0,0,0,508,508,0,1018,38,0
9,0,0,0,0,511,509,0,1018,38,0
10,0,0,0,0,507,510,0,1018,38,0
11,0,0,0,0,511,510,0,1018,38,0
12,0,0,0,0,511,512,0,1018,38,0
13,0,0,0,0,510,512,0,1018,38,0
14,0,0,0,0,511,512,0,1018,38,0
15,0,0,0,0,506,511,0,1018,39,0
0,0,0,0,0,509,510,0,1017,38,0
1,0,0,0,0,508,511,0,1000,38,0
2,0,0,0,0,509,510,0,1018,38,0
3,0,0,0,0,510,507,0,1017,38,0
4,0,0,0,0,509,505,0,1018,38,0
5,0,0,0,0,508,507,0,1018,38,0
6,0,0,0,0,507,506,0,1018,38,0
7,0,0,0,0,509,508,0,1017,39,0
8,0,0,0,0,508,509,0,1017,38,0
9,0,0,0,0,508,509,0,1018,38,0
10,0,0,0,0,510,509,0,1018,38,0
11,0,0,0,0,508,508,0,1018,38,1
12,0,0,0,0,509,509,0,1018,38,0
13,0,0,0,0,510,508,0,1018,38,0
14,0,0,0,0,509,507,0,1018,38,0
15,0,0,0,0,511,508,0,1018,39,0
0,0,0,0,0,510,505,0,1017,38,0
1,0,0,0,0,512,507,0,757,38,1
2,0,0,0,0,512,504,0,618,38,0
3,0,0,0,0,510,506,0,515,38,1
4,0,0,0,0,508,504,0,510,38,0
5,0,0,0,0,506,504,0,635,38,0
6,0,0,0,0,508,506,0,822,38,0
7,0,0,0,0,509,506,0,1017,39,0
8,0,0,0,0,507,507,0,1018,38,0
9,0,0,0,0,508,507,0,1018,38,0
10,0,0,0,0,509,507,0,1018,38,0
11,0,0,0,0,511,506,0,1018,38,1
12,0,0,0,0,512,509,0,1018,38,0
13,0,0,0,0,508,509,0,945,38,0
14,0,0,0,0,510,509,0,778,38,0
15,0,0,0,0,510,509,0,744,39,0
0,0,0,0,0,511,510,0,760,38,0
1,0,0,0,0,510,509,0,865,38,0
2,0,0,0,0,509,510,0,815,38,0
3,0,0,0,0,507,509,0,851,38,1
4,0,0,0,0,509,508,0,1018,38,1
5,0,0,0,0,509,507,0,1018,38,0
6,0,0,0,0,509,507,0,1018,38,0
7,0,0,0,0,507,507,0,1018,39,0
8,0,0,0,0,511,507,0,1018,38,0
9,0,0,0,0,511,507,0,1018,38,0
10,0,0,0,0,511,506,0,1018,38,0
11,0,0,0,0,512,507,0,1018,38,0
12,0,0,0,0,509,507,0,1018,38,1
13,0,0,0,0,508,506,0,1018,38,1
14,0,0,0,0,510,508,0,1018,38,0
15,0,0,0,0,508,507,0,1018,39,0
0,0,0,0,0,512,508,0,1018,38,0
1,0,0,0,0,508,508,0,1018,38,0
2,0,0,0,0,509,509,0,1018,38,0
3,0,0,0,0,511,510,0,1018,38,1
4,0,0,0,0,508,510,0,1018,38,1
5,0,0,0,0,509,510,0,1018,38,0
6,0,0,0,0,507,508,0,1018,38,1
7,0,0,0,0,507,507,0,1018,39,0
8,0,0,0,0,510,506,0,1018,38,0
9,0,0,0,0,509,507,0,1018,38,0
10,0,0,0,0,509,507,0,1018,38,0
11,0,0,0,0,509,508,0,1018,38,1
12,0,0,0,0,508,508,0,1018,38,1
13,0,0,0,0,508,506,0,1018,38,1
14,0,0,0,0,509,506,0,1018,38,1
15,0,0,0,0,511,505,0,684,39,0
0,0,0,0,0,511,505,0,0,38,0
1,0,0,0,0,508,508,0,0,38,0
2,0,0,0,0,509,507,0,0,38,0
3,0,0,0,0,508,506,0,0,38,0
4,0,0,0,0,511,506,0,0,38,0
5,0,0,0,0,510,505,0,0,38,1
6,0,0,0,0,508,506,0,0,38,1
7,0,0,0,0,508,505,0,0,39,0
8,0,0,0,0,510,506,0,0,38,0
9,0,0,0,0,510,505,0,0,38,0
10,0,0,0,0,504,505,0,0,38,0
11,0,0,0,0,509,506,0,0,38,0
12,0,0,0,0,508,507,0,0,38,1
13,0,0,0,0,508,508,0,0,38,1
14,0,0,0,0,512,507,0,582,38,1
15,0,0,0,0,511,508,0,1018,39,0
0,0,0,0,0,511,509,0,1018,38,0
1,0,0,0,0,511,509,0,1018,38,0
2,0,0,0,0,509,509,0,1018,38,0
3,0,0,0,0,510,510,0,1018,38,0
4,0,0,0,0,509,509,0,1018,38,1
5,0,0,0,0,508,509,0,1018,38,1
6,0,0,0,0,509,509,0,1017,38,1
7,0,0,0,0,506,508,0,1018,39,0
8,0,0,0,0,510,509,0,1018,38,0
9,0,0,0,0,509,507,0,1018,38,0
10,0,0,0,0,508,508,0,1018,38,0
11,0,0,0,0,509,507,0,1018,38,0
12,0,0,0,0,510,507,0,1018,38,0
13,0,0,0,0,511,507,0,878,38,1
14,0,0,0,0,508,506,0,717,38,1
15,0,0,0,0,510,506,0,610,39,1
0,0,0,0,0,508,505,0,491,38,0
1,0,0,0,0,508,506,0,409,38,0
2,0,0,0,0,510,505,0,366,38,0
3,0,0,0,0,509,507,0,323,38,0
4,0,0,0,0,507,507,0,381,38,0
5,0,0,0,0,509,508,0,576,38,1
6,0,0,0,0,508,508,0,844,38,1
7,0,0,0,0,511,509,0,1018,39,1
8,0,0,0,0,508,509,0,1018,38,0
9,0,0,0,0,510,510,0,1018,38,0
10,0,0,0,0,509,509,0,1018,38,0
11,0,0,0,0,509,511,0,1018,38,0
12,0,0,0,0,510,510,0,1018,38,0
13,0,0,0,0,506,511,0,1018,38,1
14,0,0,0,0,510,510,0,1018,38,1
15,0,0,0,0,510,510,0,1018,39,1
0,0,0,0,0,510,508,0,1018,38,0
1,0,0,0,0,510,510,0,1018,38,0
2,0,0,0,0,508,510,0,1018,38,0
3,0,0,0,0,510,510,0,1018,38,0
4,0,0,0,0,510,511,0,1018,38,0
5,0,0,0,0,508,509,0,1018,38,0
6,0,0,0,0,509,511,0,1018,38,1
7,0,0,0,0,508,510,0,731,39,1
8,0,0,0,0,508,510,0,493,38,0
9,0,0,0,0,511,510,0,292,38,0
10,0,0,0,0,510,511,0,142,38,0
11,0,0,0,0,509,510,0,96,38,0
12,0,0,0,0,508,511,0,130,38,0
13,0,0,0,0,510,511,0,240,38,0
14,0,0,0,0,508,509,0,373,38,1
15,0,0,0,0,508,509,0,576,39,1
0,0,0,0,0,510,511,0,870,38,1
1,0,0,0,0,509,508,0,1018,38,0
2,0,0,0,0,511,508,0,1018,38,0
3,0,0,0,0,511,510,0,1018,38,0
4,0,0,0,0,509,510,0,1018,38,0
5,0,0,0,0,512,510,0,1018,38,0
6,0,0,0,0,508,509,0,1018,38,1
7,0,0,0,0,509,508,0,1018,39,1
8,0,0,0,0,507,507,0,1018,38,1
9,0,0,0,0,508,507,0,1018,38,0
10,0,0,0,0,508,506,0,1018,38,0
11,0,0,0,0,507,509,0,1018,38,0
12,0,0,0,0,506,509,0,1018,38,0
13,0,0,0,0,510,509,0,1018,38,0
14,0,0,0,0,510,508,0,1018,38,1
15,0,0,0,0,510,509,0,1018,39,0
0,0,0,0,0,509,511,0,1018,38,1
1,0,0,0,0,510,508,0,1018,38,0
2,0,0,0,0,509,509,0,1018,38,0
3,0,0,0,0,511,508,0,1018,38,0
4,0,0,0,0,511,508,0,1018,38,0
5,0,0,0,0,508,508,0,1018,38,0
6,0,0,0,0,510,511,0,1018,38,0
7,0,0,0,0,509,509,0,1018,39,0
8,0,0,0,0,510,510,0,1018,38,1
9,0,0,0,0,510,510,0,1018,38,0
10,0,0,0,0,508,509,0,1018,38,0
11,0,0,0,0,509,508,0,1018,38,0
12,0,0,0,0,509,506,0,1018,38,0
13,0,0,0,0,509,505,0,1018,38,0
14,0,0,0,0,511,505,0,1018,38,0
15,0,0,0,0,509,506,0,1018,39,0
0,0,0,0,0,512,506,0,1018,38,0
1,0,0,0,0,509,504,0,1018,38,0
2,0,0,0,0,508,506,0,1018,38,0
3,0,0,0,0,512,506,0,1018,38,0
4,0,0,0,0,507,507,0,1018,38,0
5,0,0,0,0,509,506,0,1018,38,0
6,0,0,0,0,510,507,0,1018,38,0
7,0,0,0,0,510,509,0,1018,39,0
8,0,0,0,0,510,510,0,1018,38,0
9,0,0,0,0,509,509,0,1018,38,1
10,0,0,0,0,507,509,0,1018,38,0
11,0,0,0,0,508,507,0,1018,38,0
12,0,0,0,0,508,506,0,1018,38,0
13,0,0,0,0,508,506,0,1018,38,0
14,0,0,0,0,508,507,0,1018,38,0
15,0,0,0,0,509,507,0,1018,39,0
0,0,0,0,0,509,504,0,1018,38,0
1,0,0,0,0,510,504,0,1018,38,1
2,0,0,0,0,512,504,0,1018,38,0
3,0,0,0,0,510,504,0,1018,38,0
4,0,0,0,0,511,505,0,1018,38,0
5,0,0,0,0,508,505,0,1018,38,0
6,0,0,0,0,508,507,0,1018,38,0
7,0,0,0,0,509,508,0,1018,39,0
8,0,0,0,0,510,508,0,1018,38,0
9,0,0,0,0,510,510,0,1018,38,0
10,0,0,0,0,510,509,0,1018,38,0
11,0,0,0,0,510,508,0,1018,38,0
12,0,0,0,0,511,508,0,1018,38,0
13,0,0,0,0,509,508,0,1018,38,0
14,0,0,0,0,508,507,0,1018,38,0
15,0,0,0,0,508,507,0,1018,39,0
0,0,0,0,0,510,507,0,1018,38,0
1,0,0,0,0,510,507,0,1018,38,0
2,0,0,0,0,509,507,0,1018,38,0
3,0,0,0,0,507,506,0,1018,38,0
4,0,0,0,0,508,505,0,1018,38,0
5,0,0,0,0,507,506,0,782,38,0
6,0,0,0,0,509,506,0,540,38,0
7,0,0,0,0,507,507,0,319,39,0
8,0,0,0,0,510,506,0,142,38,0
9,0,0,0,0,507,505,0,0,38,0
10,0,0,0,0,508,507,0,0,38,0
11,0,0,0,0,509,505,0,0,38,0
12,0,0,0,0,508,505,0,0,38,0
13,0,0,0,0,509,507,0,0,38,0
14,0,0,0,0,509,507,0,0,38,0
15,0,0,0,0,509,506,0,0,39,0
0,0,0,0,0,510,507,0,0,38,0
1,0,0,0,0,509,510,0,0,38,0
2,0,0,0,0,509,511,0,0,38,0
3,0,0,0,0,510,508,0,0,38,0
4,0,0,0,0,509,508,0,0,38,0
5,0,0,0,0,510,509,0,0,38,0
6,0,0,0,0,508,508,0,0,38,0
7,0,0,0,0,508,507,0,0,39,0
8,0,0,0,0,510,508,0,0,38,0
9,0,0,0,0,510,508,0,0,38,0
10,0,0,0,0,511,510,0,0,38,0
11,0,0,0,0,507,510,0,0,38,1
12,0,0,0,0,509,510,0,0,38,0
13,0,0,0,0,509,508,0,0,38,0
14,0,0,0,0,510,509,0,0,38,0
15,0,0,0,0,510,510,0,0,39,0
0,0,0,0,0,508,509,0,0,38,0
1,0,0,0,0,506,508,0,0,38,0
2,0,0,0,0,509,506,0,0,38,0
3,0,0,0,0,508,505,0,0,38,1
4,0,0,0,0,508,504,0,0,38,0
5,0,0,0,0,508,505,0,0,38,0
6,0,0,0,0,507,505,0,0,38,0
7,0,0,0,0,508,504,0,0,39,0
8,0,0,0,0,510,507,0,0,38,0
9,0,0,0,0,510,508,0,0,38,0
10,0,0,0,0,510,509,0,0,38,0
11,0,0,0,0,508,509,0,0,38,1
12,0,0,0,0,507,508,0,0,38,0
13,0,0,0,0,511,506,0,0,38,0
14,0,0,0,0,509,505,0,0,38,0
15,0,0,0,0,509,506,0,0,39,0
0,0,0,0,0,509,504,0,0,38,0
1,0,0,0,0,508,504,0,0,38,0
2,0,0,0,0,508,505,0,0,38,0
3,0,0,0,0,510,505,0,0,38,0
4,0,0,0,0,508,505,0,0,38,1
5,0,0,0,0,508,506,0,0,38,0
6,0,0,0,0,510,506,0,0,38,0
7,0,0,0,0,510,507,0,0,39,0
8,0,0,0,0,508,510,0,0,38,0
9,0,0,0,0,510,510,0,0,38,0
10,0,0,0,0,509,511,0,0,38,0
11,0,0,0,0,510,510,0,0,38,0
12,0,0,0,0,510,510,0,0,38,1
13,0,0,0,0,509,508,0,0,38,1
14,0,0,0,0,507,508,0,0,38,0
15,0,0,0,0,509,507,0,0,39,0
0,0,0,0,0,509,507,0,0,38,0
1,0,0,0,0,509,509,0,0,38,0
2,0,0,0,0,510,509,0,0,38,0
3,0,0,0,0,506,509,0,0,38,0
4,0,0,0,0,508,509,0,0,38,1
5,0,0,0,0,508,509,0,0,38,1
6,0,0,0,0,506,507,0,0,38,1
7,0,0,0,0,508,507,0,0,39,0
8,0,0,0,0,509,508,0,0,38,0
9,0,0,0,0,509,508,0,0,38,0
10,0,0,0,0,507,507,0,0,38,0
11,0,0,0,0,509,506,0,0,38,0
12,0,0,0,0,510,506,0,0,38,0
13,0,0,0,0,508,507,0,0,38,1
14,0,0,0,0,509,507,0,0,38,1
15,0,0,0,0,508,507,0,0,39,0
0,0,0,0,0,510,505,0,0,38,0
1,0,0,0,0,510,505,0,0,38,0
2,0,0,0,0,508,506,0,0,38,0
3,0,0,0,0,509,505,0,0,38,0
4,0,0,0,0,508,506,0,0,38,1
5,0,0,0,0,507,508,0,0,38,1
6,0,0,0,0,511,508,0,0,38,1
7,0,0,0,0,509,508,0,0,39,0
8,0,0,0,0,510,508,0,0,38,0
9,0,0,0,0,510,508,0,0,38,0
10,0,0,0,0,510,508,0,0,38,0
11,0,0,0,0,509,508,0,0,38,0
12,0,0,0,0,508,509,0,0,38,1
13,0,0,0,0,508,508,0,0,38,1
14,0,0,0,0,509,509,0,0,38,1
15,0,0,0,0,508,510,0,0,39,0
0,0,0,0,0,510,512,0,0,38,0
1,0,0,0,0,508,511,0,0,38,0
2,0,0,0,0,505,509,0,0,38,0
3,0,0,0,0,510,508,0,0,38,0
4,0,0,0,0,510,507,0,0,38,0
5,0,0,0,0,512,508,0,0,38,1
6,0,0,0,0,508,509,0,0,38,1
7,0,0,0,0,508,508,0,0,39,1
8,0,0,0,0,509,508,0,0,38,0
9,0,0,0,0,510,508,0,0,38,0
10,0,0,0,0,509,508,0,0,38,0
11,0,0,0,0,510,509,0,0,38,0
12,0,0,0,0,509,508,0,0,38,0
13,0,0,0,0,508,508,0,0,38,1
14,0,0,0,0,508,508,0,0,38,1
15,0,0,0,0,510,508,0,0,39,1
0,0,0,0,0,508,509,0,0,38,0
1,0,0,0,0,510,510,0,0,38,0
2,0,0,0,0,508,508,0,0,38,0
3,0,0,0,0,511,506,0,0,38,0
4,0,0,0,0,510,507,0,0,38,0
5,0,0,0,0,508,508,0,0,38,1
6,0,0,0,0,508,507,0,0,38,1
7,0,0,0,0,507,506,0,0,39,1
8,0,0,0,0,509,506,0,0,38,1
9,0,0,0,0,510,507,0,0,38,0
10,0,0,0,0,509,507,0,0,38,0
11,0,0,0,0,510,506,0,0,38,0
12,0,0,0,0,508,504,0,0,38,0
13,0,0,0,0,508,505,0,0,38,0
14,0,0,0,0,507,505,0,0,38,1
15,0,0,0,0,509,507,0,0,39,1
0,0,0,0,0,509,506,0,0,38,1
1,0,0,0,0,507,505,0,0,38,0
2,0,0,0,0,509,505,0,0,38,0
3,0,0,0,0,511,504,0,0,38,0
4,0,0,0,0,508,506,0,0,38,0
5,0,0,0,0,511,507,0,0,38,0
6,0,0,0,0,510,505,0,0,38,1
7,0,0,0,0,510,505,0,0,39,1
8,0,0,0,0,509,504,0,0,38,1
9,0,0,0,0,509,504,0,0,38,0
10,0,0,0,0,510,507,0,0,38,0
11,0,0,0,0,510,509,0,0,38,0
12,0,0,0,0,510,510,0,0,38,0
13,0,0,0,0,509,508,0,0,38,0
14,0,0,0,0,508,507,0,0,38,1
15,0,0,0,0,508,507,0,0,39,1
0,0,0,0,0,506,506,0,0,38,1
1,0,0,0,0,508,508,0,0,38,0
2,0,0,0,0,510,508,0,0,38,0
3,0,0,0,0,507,509,0,0,38,0
4,0,0,0,0,506,509,0,0,38,0
5,0,0,0,0,509,510,0,0,38,0
6,0,0,0,0,510,510,0,0,38,1
7,0,0,0,0,510,509,0,0,39,0
8,0,0,0,0,509,509,0,0,38,1
9,0,0,0,0,512,508,0,0,38,0
10,0,0,0,0,510,508,0,0,38,0
11,0,0,0,0,510,508,0,0,38,0
12,0,0,0,0,511,508,0,0,38,0
13,0,0,0,0,509,508,0,0,38,0
14,0,0,0,0,507,507,0,0,38,1
15,0,0,0,0,508,508,0,0,39,1
0,0,0,0,0,509,508,0,0,38,1
1,0,0,0,0,505,508,0,0,38,0
2,0,0,0,0,509,508,0,0,38,0
3,0,0,0,0,509,510,0,0,38,0
4,0,0,0,0,507,509,0,0,38,0
5,0,0,0,0,510,507,0,0,38,0
6,0,0,0,0,508,506,0,0,38,0
7,0,0,0,0,509,507,0,0,39,0
8,0,0,0,0,511,508,0,0,38,1
9,0,0,0,0,508,508,0,0,38,1
10,0,0,0,0,510,510,0,0,38,0
11,0,0,0,0,508,507,0,137,38,0
12,0,0,0,0,507,507,0,327,38,0
13,0,0,0,0,511,507,0,471,38,0
14,0,0,0,0,511,507,0,598,38,0
15,0,0,0,0,510,505,0,724,39,0
0,0,0,0,0,509,506,0,765,38,0
1,0,0,0,0,508,506,0,695,38,1
2,0,0,0,0,510,508,0,691,38,0
3,0,0,0,0,508,507,0,577,38,0
4,0,0,0,0,509,507,0,337,38,0
5,0,0,0,0,510,508,0,80,38,0
6,0,0,0,0,507,508,0,0,38,0
7,0,0,0,0,508,506,0,0,39,0
8,0,0,0,0,507,506,0,0,38,0
9,0,0,0,0,510,504,0,0,38,1
10,0,0,0,0,511,504,0,0,38,0
11,0,0,0,0,508,503,0,0,38,0
12,0,0,0,0,509,504,0,0,38,0
13,0,0,0,0,508,507,0,0,38,0
14,0,0,0,0,508,506,0,0,38,0
15,0,0,0,0,510,507,0,0,39,0
0,0,0,0,0,508,508,0,0,38,0
1,0,0,0,0,508,507,0,0,38,1
2,0,0,0,0,509,507,0,0,38,0
3,0,0,0,0,509,507,0,0,38,0
4,0,0,0,0,509,507,0,0,38,0
5,0,0,0,0,510,508,0,0,38,0
6,0,0,0,0,508,508,0,138,38,0
7,0,0,0,0,508,508,0,320,39,0
8,0,0,0,0,506,509,0,524,38,0
9,0,0,0,0,509,508,0,933,38,1
10,0,0,0,0,508,509,0,1018,38,0
11,0,0,0,0,511,509,0,1018,38,0
12,0,0,0,0,508,508,0,1018,38,0
13,0,0,0,0,509,508,0,1018,38,0
14,0,0,0,0,511,505,0,1018,38,0
15,0,0,0,0,509,504,0,1018,39,0
0,0,0,0,0,510,503,0,1018,38,0
1,0,0,0,0,510,504,0,1018,38,0
2,0,0,0,0,510,505,0,1018,38,0
3,0,0,0,0,510,507,0,1018,38,0
4,0,0,0,0,509,508,0,1018,38,0
5,0,0,0,0,509,510,0,1018,38,0
6,0,0,0,0,508,510,0,1018,38,0
7,0,0,0,0,509,508,0,1018,39,0
8,0,0,0,0,511,509,0,1018,38,0
9,0,0,0,0,512,509,0,1018,38,0
10,0,0,0,0,510,508,0,1018,38,0
11,0,0,0,0,510,508,0,1018,38,0
12,0,0,0,0,509,508,0,1018,38,0
13,0,0,0,0,510,509,0,1018,38,0
14,0,0,0,0,508,510,0,1018,38,0
15,0,0,0,0,508,510,0,1018,39,0
0,0,0,0,0,509,510,0,1018,38,0
1,0,0,0,0,510,509,0,1018,38,0
2,0,0,0,0,510,508,0,1018,38,0
3,0,0,0,0,508,508,0,1018,38,0
4,0,0,0,0,509,508,0,1018,38,0
5,0,0,0,0,508,508,0,1018,38,0
6,0,0,0,0,509,506,0,1018,38,0
7,0,0,0,0,508,506,0,1018,39,0
8,0,0,0,0,508,507,0,1018,38,0
9,0,0,0,0,508,506,0,1018,38,0
10,0,0,0,0,509,506,0,1018,38,0
11,0,0,0,0,510,506,0,1017,38,1
12,0,0,0,0,509,506,0,895,38,0
13,0,0,0,0,508,505,0,897,38,0
14,0,0,0,0,512,505,0,876,38,0
15,0,0,0,0,509,505,0,899,39,0
0,0,0,0,0,510,504,0,972,38,0
1,0,0,0,0,511,506,0,929,38,0
2,0,0,0,0,508,508,0,903,38,0
3,0,0,0,0,511,506,0,757,38,1
4,0,0,0,0,508,505,0,511,38,0
5,0,0,0,0,509,505,0,222,38,0
6,0,0,0,0,509,506,0,0,38,0
7,0,0,0,0,508,505,0,0,39,0
8,0,0,0,0,508,506,0,0,38,0
9,0,0,0,0,512,507,0,0,38,0
10,0,0,0,0,508,508,0,0,38,0
11,0,0,0,0,509,507,0,0,38,0
12,0,0,0,0,508,508,0,0,38,1
13,0,0,0,0,509,509,0,0,38,0
14,0,0,0,0,510,510,0,0,38,0
15,0,0,0,0,509,508,0,0,39,0
0,0,0,0,0,510,507,0,0,38,0
1,0,0,0,0,509,507,0,0,38,0
2,0,0,0,0,507,509,0,0,38,0
3,0,0,0,0,510,510,0,0,38,0
4,0,0,0,0,510,508,0,0,38,1
5,0,0,0,0,509,508,0,0,38,0
6,0,0,0,0,508,508,0,0,38,0
7,0,0,0,0,507,508,0,0,39,0
8,0,0,0,0,509,508,0,0,38,0
9,0,0,0,0,508,508,0,0,38,0
10,0,0,0,0,507,507,0,0,38,0
11,0,0,0,0,507,508,0,0,38,0
12,0,0,0,0,507,507,0,0,38,1
13,0,0,0,0,508,508,0,0,38,1
14,0,0,0,0,508,506,0,0,38,0
15,0,0,0,0,510,506,0,0,39,0
0,0,0,0,0,509,507,0,0,38,0
1,0,0,0,0,509,508,0,0,38,0
2,0,0,0,0,510,506,0,0,38,0
3,0,0,0,0,512,505,0,0,38,0
4,0,0,0,0,511,506,0,0,38,1
5,0,0,0,0,510,506,0,0,38,1
6,0,0,0,0,511,507,0,0,38,1
7,0,0,0,0,511,507,0,0,39,0
8,0,0,0,0,511,506,0,0,38,0
9,0,0,0,0,509,506,0,0,38,0
10,0,0,0,0,505,506,0,0,38,0
11,0,0,0,0,509,507,0,0,38,0
12,0,0,0,0,509,506,0,0,38,1
13,0,0,0,0,509,507,0,0,38,1
14,0,0,0,0,511,509,0,0,38,1
15,0,0,0,0,508,509,0,0,39,0
0,0,0,0,0,511,508,0,0,38,0
1,0,0,0,0,509,507,0,0,38,0
2,0,0,0,0,507,508,0,0,38,0
3,0,0,0,0,510,508,0,0,38,0
4,0,0,0,0,508,509,0,0,38,0
5,0,0,0,0,509,507,0,0,38,1
6,0,0,0,0,511,508,0,0,38,1
7,0,0,0,0,508,508,0,0,39,0
8,0,0,0,0,508,509,0,0,38,0
9,0,0,0,0,509,510,0,0,38,0
10,0,0,0,0,507,508,0,0,38,0
11,0,0,0,0,508,508,0,0,38,0
12,0,0,0,0,507,507,0,0,38,0
13,0,0,0,0,508,507,0,0,38,1
14,0,0,0,0,508,507,0,0,38,1
15,0,0,0,0,508,507,0,0,39,0
0,0,0,0,0,508,507,0,0,38,0
1,0,0,0,0,509,510,0,0,38,0
2,0,0,0,0,512,510,0,0,38,0
3,0,0,0,0,509,511,0,0,38,0
4,0,0,0,0,511,511,0,0,38,0
5,0,0,0,0,510,511,0,0,38,1
6,0,0,0,0,511,510,0,0,38,1
7,0,0,0,0,509,509,0,0,39,0
8,0,0,0,0,506,508,0,0,38,0
9,0,0,0,0,508,507,0,0,38,0
10,0,0,0,0,508,506,0,0,38,0
11,0,0,0,0,509,506,0,0,38,0
12,0,0,0,0,509,505,0,0,38,0
13,0,0,0,0,512,507,0,0,38,1
14,0,0,0,0,509,506,0,0,38,1
15,0,0,0,0,507,506,0,0,39,1
0,0,0,0,0,510,508,0,0,38,0
1,0,0,0,0,510,508,0,0,38,0
2,0,0,0,0,509,507,0,0,38,0
3,0,0,0,0,508,506,0,0,38,0
4,0,0,0,0,508,507,0,0,38,0
5,0,0,0,0,508,507,0,0,38,1
6,0,0,0,0,510,507,0,0,38,1
7,0,0,0,0,508,506,0,0,39,1
8,0,0,0,0,510,505,0,0,38,1
9,0,0,0,0,509,506,0,0,38,0
10,0,0,0,0,508,507,0,0,38,0
11,0,0,0,0,509,506,0,0,38,0
12,0,0,0,0,508,507,0,0,38,0
13,0,0,0,0,506,507,0,0,38,0
14,0,0,0,0,508,506,0,0,38,1
15,0,0,0,0,509,506,0,0,39,1
0,0,0,0,0,511,507,0,0,38,1
1,0,0,0,0,510,507,0,0,38,0
2,0,0,0,0,508,508,0,0,38,0
3,0,0,0,0,510,507,0,0,38,0
4,0,0,0,0,507,509,0,0,38,0
5,0,0,0,0,511,507,0,0,38,0
6,0,0,0,0,511,508,0,0,38,1
7,0,0,0,0,509,509,0,0,39,1
8,0,0,0,0,508,510,0,0,38,1
9,0,0,0,0,512,510,0,353,38,0
10,0,0,0,0,510,509,0,740,38,0
11,0,0,0,0,509,509,0,1018,38,0
12,0,0,0,0,508,509,0,1018,38,0
13,0,0,0,0,508,509,0,1018,38,0
14,0,0,0,0,510,508,0,1018,38,1
15,0,0,0,0,510,508,0,1018,39,1
0,0,0,0,0,507,509,0,1018,38,1
1,0,0,0,0,509,509,0,1018,38,1
2,0,0,0,0,510,508,0,1018,38,0
3,0,0,0,0,510,508,0,1018,38,0
4,0,0,0,0,511,508,0,1018,38,0
5,0,0,0,0,508,507,0,1018,38,0
6,0,0,0,0,508,506,0,1018,38,1
7,0,0,0,0,510,506,0,1018,39,1
8,0,0,0,0,507,505,0,1018,38,1
9,0,0,0,0,510,505,0,1018,38,1
10,0,0,0,0,508,505,0,1018,38,0
11,0,0,0,0,509,506,0,1018,38,0
12,0,0,0,0,510,504,0,1018,38,0
13,0,0,0,0,512,506,0,1018,38,0
14,0,0,0,0,511,506,0,1018,38,0
15,0,0,0,0,509,506,0,1018,39,1
0,0,0,0,0,507,508,0,1018,38,1
1,0,0,0,0,509,510,0,1018,38,1
2,0,0,0,0,509,509,0,1018,38,0
3,0,0,0,0,512,510,0,1018,38,0
4,0,0,0,0,507,509,0,1018,38,0
5,0,0,0,0,509,508,0,1018,38,0
6,0,0,0,0,510,507,0,1018,38,0
7,0,0,0,0,510,508,0,1018,39,0
8,0,0,0,0,512,508,0,1018,38,1
9,0,0,0,0,509,509,0,1018,38,1
10,0,0,0,0,508,508,0,1018,38,0
11,0,0,0,0,509,507,0,1018,38,0
12,0,0,0,0,508,506,0,1018,38,0
13,0,0,0,0,508,505,0,1018,38,0
14,0,0,0,0,505,505,0,1018,38,0
15,0,0,0,0,507,505,0,1018,39,0
0,0,0,0,0,510,505,0,1018,38,1
1,0,0,0,0,510,506,0,1018,38,1
2,0,0,0,0,511,507,0,1018,38,0
3,0,0,0,0,508,507,0,1018,38,0
4,0,0,0,0,509,508,0,1018,38,0
5,0,0,0,0,509,508,0,1018,38,0
6,0,0,0,0,508,508,0,1018,38,0
7,0,0,0,0,509,509,0,1018,39,0
8,0,0,0,0,509,508,0,1018,38,0
9,0,0,0,0,509,508,0,1018,38,1
10,0,0,0,0,508,508,0,1018,38,0
11,0,0,0,0,508,508,0,1018,38,0
12,0,0,0,0,509,506,0,1018,38,0
13,0,0,0,0,510,505,0,1018,38,0
14,0,0,0,0,508,507,0,1018,38,0
15,0,0,0,0,510,507,0,1018,39,0
0,0,0,0,0,509,505,0,1018,38,0
1,0,0,0,0,511,505,0,1018,38,0
2,0,0,0,0,510,506,0,1018,38,0
3,0,0,0,0,510,506,0,1018,38,0
4,0,0,0,0,509,506,0,1018,38,0
5,0,0,0,0,510,506,0,1018,38,0
6,0,0,0,0,509,506,0,1018,38,0
7,0,0,0,0,509,508,0,1018,39,0
8,0,0,0,0,510,508,0,1017,38,0
9,0,0,0,0,511,507,0,862,38,0
10,0,0,0,0,509,507,0,950,38,0
11,0,0,0,0,511,507,0,994,38,0
12,0,0,0,0,508,507,0,992,38,0
13,0,0,0,0,509,508,0,1014,38,0
14,0,0,0,0,510,508,0,1017,38,0
15,0,0,0,0,510,508,0,1017,39,0
0,0,0,0,0,509,506,0,1018,38,0
1,0,0,0,0,511,506,0,1018,38,0
2,0,0,0,0,511,504,0,1018,38,0
3,0,0,0,0,511,504,0,1018,38,0
4,0,0,0,0,510,505,0,1018,38,0
5,0,0,0,0,510,505,0,1018,38,0
6,0,0,0,0,508,507,0,1018,38,0
7,0,0,0,0,510,507,0,1018,39,0
8,0,0,0,0,509,507,0,1018,38,0
9,0,0,0,0,511,508,0,1018,38,0
10,0,0,0,0,512,509,0,1018,38,0
11,0,0,0,0,509,508,0,1018,38,0
12,0,0,0,0,508,508,0,1018,38,0
13,0,0,0,0,510,507,0,1018,38,0
14,0,0,0,0,508,507,0,1018,38,0
15,0,0,0,0,509,508,0,1018,39,0
0,0,0,0,0,506,508,0,1018,38,0
1,0,0,0,0,508,508,0,1018,38,0
2,0,0,0,0,508,508,0,1018,38,0
3,0,0,0,0,509,509,0,1018,38,0
4,0,0,0,0,509,509,0,1018,38,0
5,0,0,0,0,508,510,0,1018,38,0
6,0,0,0,0,507,510,0,1018,38,0
7,0,0,0,0,506,510,0,1018,39,0
8,0,0,0,0,509,511,0,1018,38,0
9,0,0,0,0,510,512,0,1018,38,0
10,0,0,0,0,509,511,0,1018,38,0
11,0,0,0,0,510,510,0,1018,38,0
12,0,0,0,0,509,510,0,1018,38,0
13,0,0,0,0,511,508,0,1018,38,0
14,0,0,0,0,510,508,0,1018,38,0
15,0,0,0,0,507,509,0,1018,39,0
0,0,0,0,0,509,509,0,1018,38,0
1,0,0,0,0,508,508,0,1018,38,0
2,0,0,0,0,511,507,0,1018,38,0
3,0,0,0,0,511,507,0,1018,38,1
4,0,0,0,0,508,508,0,1018,38,1
5,0,0,0,0,511,507,0,1018,38,0
6,0,0,0,0,509,507,0,1018,38,0
7,0,0,0,0,509,508,0,1018,39,0
8,0,0,0,0,508,507,0,1018,38,0
9,0,0,0,0,509,507,0,1018,38,0
10,0,0,0,0,511,508,0,1018,38,0
11,0,0,0,0,508,508,0,1018,38,0
12,0,0,0,0,509,507,0,1018,38,1
13,0,0,0,0,510,507,0,1018,38,1
14,0,0,0,0,507,507,0,1018,38,0
15,0,0,0,0,509,508,0,1018,39,0
0,0,0,0,0,509,507,0,1018,38,0
1,0,0,0,0,509,509,0,1018,38,0
2,0,0,0,0,510,509,0,1018,38,0
3,0,0,0,0,508,510,0,1018,38,0
4,0,0,0,0,510,510,0,1018,38,1
5,0,0,0,0,510,510,0,1018,38,0
6,0,0,0,0,510,508,0,1018,38,0
7,0,0,0,0,511,508,0,1018,39,0
8,0,0,0,0,508,508,0,1018,38,0
9,0,0,0,0,509,507,0,1018,38,0
10,0,0,0,0,509,508,0,1018,38,0
11,0,0,0,0,508,509,0,1018,38,0
12,0,0,0,0,510,508,0,1018,38,1
13,0,0,0,0,508,509,0,1018,38,1
14,0,0,0,0,508,508,0,1018,38,1
