timestamp;ecg
0;505
1;502
2;510
3;503
4;501
5;499
6;505
7;508
8;506
9;513
10;499
11;504
12;500
13;508
14;509
15;502
16;496
17;497
18;499
19;509
20;506
21;508
22;502
23;502
24;496
25;504
26;504
27;501
28;503
29;510
30;506
31;502
32;504
33;506
34;507
35;499
36;499
37;502
38;505
39;510
40;509
41;508
42;507
43;504
44;507
45;492
46;502
47;500
48;506
49;502
50;510
51;507
52;500
53;505
54;512
55;505
56;499
57;498
58;498
59;500
60;496
61;500
62;510
63;511
64;506
65;502
66;501
67;505
68;503
69;507
70;509
71;505
72;505
73;502
74;503
75;504
76;501
77;499
78;499
79;519
80;502
81;500
82;505
83;503
84;503
85;503
86;505
87;503
88;507
89;505
90;504
91;505
92;499
93;500
94;505
95;503
96;499
97;498
98;496
99;506
100;505
101;500
102;509
103;504
104;499
105;496
106;507
107;504
108;497
109;504
110;503
111;511
112;501
113;501
114;498
115;496
116;505
117;493
118;511
119;504
120;502
121;510
122;500
123;509
124;499
125;500
126;504
127;502
128;505
129;505
130;503
131;511
132;497
133;506
134;514
135;502
136;504
137;501
138;496
139;503
140;499
141;499
142;502
143;502
144;501
145;505
146;508
147;500
148;511
149;508
150;502
151;502
152;503
153;507
154;508
155;500
156;503
157;503
158;505
159;505
160;514
161;495
162;498
163;502
164;510
165;504
166;506
167;500
168;503
169;502
170;504
171;505
172;501
173;503
174;505
175;501
176;508
177;495
178;504
179;500
180;509
181;505
182;499
183;501
184;504
185;508
186;507
187;496
188;503
189;507
190;503
191;502
192;504
193;494
194;511
195;501
196;497
197;501
198;501
199;512
200;508
201;489
202;505
203;501
204;511
205;500
206;500
207;506
208;499
209;502
210;505
211;510
212;507
213;502
214;511
215;500
216;497
217;499
218;500
219;507
220;506
221;505
222;504
223;494
224;504
225;508
226;504
227;503
228;502
229;497
230;500
231;496
232;501
233;504
234;509
235;500
236;505
237;503
238;497
239;503
240;500
241;499
242;507
243;502
244;511
245;507
246;508
247;511
248;500
249;505
250;497
251;503
252;504
253;503
254;504
255;502
256;497
257;500
258;501
259;508
260;507
261;501
262;492
263;504
264;511
265;504
266;494
267;499
268;509
269;505
270;497
271;506
272;504
273;508
274;502
275;499
276;496
277;502
278;503
279;511
280;498
281;506
282;496
283;496
284;502
285;501
286;503
287;505
288;505
289;505
290;504
291;501
292;495
293;505
294;511
295;504
296;500
297;499
298;502
299;502
300;498
301;500
302;507
303;504
304;512
305;501
306;506
307;501
308;499
309;516
310;512
311;504
312;504
313;494
314;515
315;499
316;500
317;504
318;493
319;516
320;506
321;501
322;500
323;502
324;504
325;499
326;504
327;498
328;500
329;506
330;499
331;515
332;504
333;499
334;502
335;499
336;513
337;497
338;500
339;503
340;500
341;510
342;507
343;500
344;505
345;510
346;504
347;504
348;508
349;509
350;504
351;505
352;506
353;504
354;497
355;500
356;509
357;496
358;501
359;512
360;501
361;511
362;504
363;502
364;498
365;505
366;506
367;504
368;502
369;503
370;506
371;495
372;500
373;510
374;510
375;494
376;496
377;499
378;507
379;508
380;499
381;500
382;498
383;497
384;515
385;505
386;494
387;499
388;500
389;513
390;510
391;514
392;491
393;510
394;509
395;497
396;496
397;499
398;501
399;504
400;509
401;503
402;497
403;504
404;503
405;510
406;508
407;494
408;503
409;497
410;506
411;500
412;505
413;500
414;513
415;511
416;497
417;505
418;498
419;511
420;508
421;502
422;496
423;508
424;510
425;500
426;501
427;499
428;498
429;506
430;510
431;502
432;502
433;502
434;507
435;506
436;501
437;498
438;504
439;514
440;503
441;498
442;502
443;496
444;510
445;504
446;500
447;505
448;497
449;500
450;505
451;501
452;493
453;502
454;503
455;500
456;505
457;514
458;501
459;507
460;512
461;500
462;505
463;504
464;505
465;508
466;496
467;499
468;502
469;506
470;500
471;499
472;505
473;501
474;513
475;508
476;500
477;510
478;493
479;508
480;498
481;497
482;510
483;503
484;508
485;510
486;491
487;503
488;504
489;509
490;503
491;496
492;513
493;495
494;503
495;507
496;508
497;505
498;502
499;513
500;508
501;497
502;503
503;502
504;500
505;494
506;500
507;502
508;504
509;511
510;508
511;508
512;505
513;507
514;510
515;498
516;498
517;496
518;505
519;518
520;494
521;507
522;500
523;499
524;508
525;508
526;508
527;499
528;495
529;504
530;508
531;506
532;503
533;495
534;499
535;504
536;504
537;499
538;500
539;509
540;504
541;505
542;507
543;505
544;509
545;505
546;502
547;505
548;501
549;511
550;507
551;497
552;507
553;502
554;510
555;499
556;501
557;504
558;508
559;508
560;504
561;496
562;500
563;504
564;509
565;501
566;501
567;504
568;502
569;506
570;508
571;500
572;502
573;508
574;504
575;506
576;508
577;495
578;501
579;501
580;498
581;506
582;503
583;509
584;510
585;497
586;503
587;499
588;501
589;510
590;497
591;494
592;505
593;511
594;500
595;504
596;498
597;499
598;496
599;508
600;496
601;501
602;504
603;500
604;507
605;502
606;510
607;499
608;504
609;503
610;501
611;502
612;500
613;505
614;504
615;495
616;499
617;499
618;502
619;511
620;509
621;508
622;503
623;501
624;512
625;504
626;500
627;507
628;495
629;504
630;501
631;505
632;500
633;508
634;502
635;509
636;507
637;497
638;500
639;508
640;498
641;497
642;504
643;507
644;507
645;505
646;501
647;500
648;502
649;509
650;504
651;502
652;508
653;495
654;512
655;504
656;499
657;500
658;496
659;508
660;502
661;496
662;498
663;505
664;509
665;496
666;511
667;501
668;503
669;512
670;502
671;496
672;498
673;508
674;508
675;509
676;503
677;511
678;505
679;508
680;495
681;505
682;503
683;501
684;496
685;500
686;506
687;504
688;506
689;502
690;496
691;504
692;501
693;502
694;503
695;507
696;507
697;504
698;506
699;505
700;499
701;509
702;491
703;505
704;495
705;505
706;511
707;500
708;504
709;503
710;507
711;503
712;498
713;514
714;495
715;501
716;508
717;503
718;505
719;504
720;498
721;502
722;500
723;503
724;505
725;505
726;503
727;500
728;503
729;499
730;500
731;506
732;501
733;513
734;507
735;502
736;508
737;502
738;507
739;499
740;498
741;507
742;503
743;504
744;500
745;496
746;509
747;500
748;498
749;503
750;505
751;499
752;508
753;508
754;513
755;504
756;493
757;502
758;491
759;508
760;502
761;499
762;503
763;511
764;502
765;499
766;502
767;501
768;507
769;506
770;502
771;494
772;509
773;496
774;497
775;505
776;502
777;498
778;503
779;509
780;502
781;497
782;503
783;504
784;509
785;500
786;497
787;496
788;495
789;512
790;507
791;507
792;497
793;504
794;505
795;501
796;512
797;492
798;502
799;504
800;502
801;506
802;503
803;515
804;503
805;499
806;505
807;507
808;507
809;504
810;498
811;507
812;497
813;504
814;502
815;502
816;500
817;505
818;498
819;505
820;497
821;500
822;505
823;502
824;492
825;503
826;506
827;502
828;505
829;509
830;506
831;497
832;494
833;496
834;510
835;497
836;507
837;498
838;501
839;508
840;506
841;499
842;504
843;505
844;505
845;503
846;503
847;501
848;496
849;511
850;500
851;495
852;513
853;508
854;498
855;504
856;499
857;499
858;501
859;504
860;504
861;500
862;500
863;504
864;509
865;504
866;503
867;510
868;509
869;497
870;497
871;506
872;497
873;511
874;511
875;499
876;495
877;500
878;510
879;503
880;508
881;498
882;498
883;503
884;507
885;499
886;507
887;499
888;497
889;509
890;509
891;504
892;503
893;503
894;510
895;500
896;501
897;499
898;499
899;504
900;508
901;502
902;503
903;502
904;496
905;497
906;504
907;507
908;501
909;504
910;499
911;497
912;503
913;502
914;508
915;506
916;496
917;505
918;507
919;513
920;507
921;504
922;501
923;497
924;509
925;510
926;499
927;507
928;500
929;496
930;506
931;504
932;504
933;504
934;504
935;497
936;510
937;494
938;502
939;505
940;497
941;506
942;500
943;507
944;506
945;506
946;506
947;497
948;502
949;503
950;508
951;502
952;500
953;504
954;505
955;507
956;501
957;503
958;496
959;509
960;508
961;493
962;495
963;501
964;508
965;497
966;502
967;501
968;509
969;512
970;501
971;502
972;502
973;499
974;508
975;505
976;504
977;499
978;506
979;504
980;506
981;500
982;504
983;508
984;511
985;504
986;505
987;499
988;497
989;507
990;503
991;498
992;499
993;501
994;512
995;508
996;502
997;506
998;492
999;507
1000;503
1001;508
1002;506
1003;499
1004;506
1005;501
1006;506
1007;502
1008;501
1009;512
1010;505
1011;499
1012;497
1013;502
1014;505
1015;499
1016;498
1017;499
1018;496
1019;514
1020;501
1021;504
1022;499
1023;499
1024;515
1025;504
1026;505
1027;502
1028;498
1029;508
1030;504
1031;501
1032;503
1033;500
1034;506
1035;505
1036;494
1037;511
1038;498
1039;497
1040;505
1041;502
1042;501
1043;500
1044;508
1045;506
1046;502
1047;500
1048;499
1049;511
1050;507
1051;502
1052;498
1053;504
1054;501
1055;501
1056;502
1057;501
1058;499
1059;513
1060;508
1061;497
1062;496
1063;507
1064;508
1065;506
1066;498
1067;504
1068;503
1069;509
1070;510
1071;497
1072;502
1073;497
1074;514
1075;515
1076;499
1077;499
1078;503
1079;501
1080;502
1081;495
1082;501
1083;505
1084;507
1085;502
1086;503
1087;499
1088;496
1089;507
1090;502
1091;492
1092;505
1093;510
1094;508
1095;502
1096;508
1097;498
1098;502
1099;505
1100;504
1101;504
1102;507
1103;503
1104;504
1105;504
1106;499
1107;501
1108;502
1109;512
1110;506
1111;503
1112;499
1113;496
1114;515
1115;498
1116;509
1117;499
1118;508
1119;500
1120;506
1121;512
1122;500
1123;506
1124;508
1125;507
1126;505
1127;505
1128;498
1129;507
1130;506
1131;500
1132;493
1133;501
1134;504
1135;507
1136;505
1137;496
1138;504
1139;513
1140;509
1141;507
1142;505
1143;496
1144;507
1145;502
1146;495
1147;501
1148;503
1149;500
1150;501
1151;510
1152;500
1153;507
1154;505
1155;503
1156;499
1157;511
1158;500
1159;512
1160;501
1161;511
1162;498
1163;502
1164;504
1165;497
1166;500
1167;498
1168;512
1169;503
1170;508
1171;511
1172;499
1173;511
1174;503
1175;504
1176;503
1177;498
1178;506
1179;506
1180;495
1181;507
1182;496
1183;498
1184;501
1185;499
1186;504
1187;503
1188;501
1189;508
1190;500
1191;511
1192;492
1193;501
1194;508
1195;499
1196;511
1197;498
1198;515
1199;500
1200;502
1201;504
1202;496
1203;508
1204;507
1205;503
1206;500
1207;504
1208;507
1209;495
1210;503
1211;507
1212;502
1213;506
1214;506
1215;496
1216;495
1217;496
1218;508
1219;510
1220;508
1221;502
1222;505
1223;497
1224;502
1225;499
1226;504
1227;504
1228;504
1229;508
1230;504
1231;508
1232;503
1233;500
1234;502
1235;506
1236;502
1237;498
1238;505
1239;502
1240;502
1241;504
1242;504
1243;500
1244;506
1245;504
1246;504
1247;507
1248;500
1249;502
1250;504
1251;494
1252;502
1253;512
1254;502
1255;505
1256;501
1257;511
1258;500
1259;499
1260;504
1261;500
1262;505
1263;496
1264;506
1265;498
1266;500
1267;505
1268;506
1269;507
1270;504
1271;504
1272;500
1273;508
1274;502
1275;506
1276;507
1277;508
1278;508
1279;496
1280;500
1281;502
1282;494
1283;504
1284;508
1285;508
1286;504
1287;497
1288;508
1289;502
1290;509
1291;497
1292;499
1293;507
1294;506
1295;504
1296;495
1297;498
1298;499
1299;508
1300;496
1301;501
1302;501
1303;506
1304;505
1305;507
1306;504
1307;503
1308;510
1309;503
1310;499
1311;509
1312;494
1313;497
1314;498
1315;507
1316;506
1317;503
1318;493
1319;502
1320;507
1321;506
1322;503
1323;502
1324;505
1325;503
1326;500
1327;509
1328;503
1329;510
1330;502
1331;497
1332;499
1333;502
1334;511
1335;504
1336;502
1337;499
1338;501
1339;500
1340;502
1341;511
1342;502
1343;505
1344;507
1345;502
1346;501
1347;498
1348;498
1349;501
1350;498
1351;505
1352;501
1353;510
1354;512
1355;508
1356;504
1357;495
1358;500
1359;509
1360;501
1361;504
1362;496
1363;505
1364;514
1365;496
1366;498
1367;506
1368;505
1369;504
1370;502
1371;493
1372;500
1373;506
1374;504
1375;502
1376;500
1377;495
1378;497
1379;508
1380;504
1381;506
1382;503
1383;503
1384;511
1385;509
1386;505
1387;499
1388;499
1389;504
1390;509
1391;506
1392;500
1393;501
1394;501
1395;503
1396;507
1397;500
1398;507
1399;512
1400;494
1401;501
1402;499
1403;503
1404;504
1405;499
1406;504
1407;504
1408;505
1409;505
1410;500
1411;504
1412;504
1413;503
1414;506
1415;505
1416;503
1417;502
1418;503
1419;506
1420;502
1421;500
1422;508
1423;499
1424;504
1425;510
1426;504
1427;501
1428;504
1429;509
1430;508
1431;498
1432;498
1433;501
1434;515
1435;502
1436;499
1437;501
1438;497
1439;519
1440;512
1441;496
1442;504
1443;499
1444;510
1445;507
1446;498
1447;505
1448;499
1449;506
1450;500
1451;504
1452;499
1453;500
1454;510
1455;505
1456;503
1457;498
1458;501
1459;504
1460;508
1461;509
1462;503
1463;499
1464;511
1465;500
1466;503
1467;502
1468;504
1469;506
1470;501
1471;507
1472;496
1473;502
1474;499
1475;500
1476;497
1477;504
1478;504
1479;508
1480;500
1481;511
1482;496
1483;504
1484;511
1485;500
1486;498
1487;499
1488;504
1489;505
1490;506
1491;504
1492;502
1493;506
1494;499
1495;498
1496;504
1497;501
1498;510
1499;508
1500;502
1501;503
1502;494
1503;503
1504;510
1505;505
1506;506
1507;501
1508;507
1509;502
1510;503
1511;508
1512;504
1513;494
1514;503
1515;510
1516;503
1517;507
1518;504
1519;504
1520;499
1521;505
1522;505
1523;499
1524;507
1525;504
1526;503
1527;500
1528;502
1529;509
1530;504
1531;504
1532;502
1533;502
1534;510
1535;502
1536;497
1537;497
1538;502
1539;508
1540;502
1541;504
1542;497
1543;494
1544;507
1545;507
1546;508
1547;505
1548;499
1549;503
1550;508
1551;504
1552;508
1553;500
1554;509
1555;505
1556;503
1557;501
1558;501
1559;507
1560;501
1561;498
1562;501
1563;508
1564;512
1565;505
1566;498
1567;504
1568;499
1569;506
1570;507
1571;500
1572;499
1573;503
1574;512
1575;511
1576;498
1577;503
1578;498
1579;503
1580;504
1581;499
1582;501
1583;501
1584;501
1585;506
1586;504
1587;505
1588;505
1589;507
1590;508
1591;512
1592;497
1593;504
1594;504
1595;500
1596;499
1597;498
1598;502
1599;509
1600;502
1601;502
1602;498
1603;509
1604;510
1605;507
1606;508
1607;496
1608;505
1609;499
1610;508
1611;502
1612;504
1613;500
1614;504
1615;499
1616;496
1617;505
1618;507
1619;509
1620;501
1621;508
1622;497
1623;504
1624;502
1625;509
1626;494
1627;497
1628;504
1629;505
1630;505
1631;507
1632;498
1633;511
1634;510
1635;505
1636;499
1637;503
1638;504
1639;512
1640;509
1641;510
1642;493
1643;505
1644;513
1645;501
1646;498
1647;502
1648;501
1649;508
1650;500
1651;504
1652;498
1653;503
1654;508
1655;511
1656;496
1657;499
1658;503
1659;512
1660;505
1661;514
1662;500
1663;499
1664;506
1665;500
1666;508
1667;502
1668;504
1669;505
1670;505
1671;502
1672;497
1673;504
1674;500
1675;510
1676;498
1677;509
1678;497
1679;504
1680;507
1681;502
1682;502
1683;499
1684;512
1685;495
1686;500
1687;502
1688;503
1689;514
1690;506
1691;510
1692;499
1693;501
1694;511
1695;492
1696;501
1697;499
1698;499
1699;508
1700;506
1701;506
1702;499
1703;504
1704;508
1705;504
1706;499
1707;508
1708;503
1709;504
1710;500
1711;501
1712;502
1713;499
1714;500
1715;498
1716;502
1717;497
1718;504
1719;510
1720;499
1721;498
1722;503
1723;504
1724;508
1725;502
1726;504
1727;500
1728;508
1729;508
1730;507
1731;504
1732;501
1733;501
1734;504
1735;494
1736;502
1737;506
1738;497
1739;514
1740;505
1741;502
1742;508
1743;498
1744;510
1745;502
1746;500
1747;502
1748;501
1749;507
1750;502
1751;504
1752;498
1753;503
1754;501
1755;500
1756;506
1757;499
1758;507
1759;504
1760;499
1761;514
1762;498
1763;507
1764;499
1765;509
1766;511
1767;502
1768;509
1769;502
1770;511
1771;506
1772;495
1773;505
1774;499
1775;502
1776;499
1777;508
1778;507
1779;510
1780;502
1781;496
1782;504
1783;496
1784;504
1785;510
1786;497
1787;507
1788;506
1789;507
1790;504
1791;495
1792;500
1793;501
1794;515
1795;497
1796;496
1797;504
1798;501
1799;512
1800;507
1801;502
1802;502
1803;506
1804;505
1805;501
1806;507
1807;505
1808;508
1809;511
1810;503
1811;496
1812;494
1813;497
1814;502
1815;503
1816;504
1817;507
1818;508
1819;511
1820;503
1821;508
1822;500
1823;500
1824;507
1825;500
1826;508
1827;498
1828;507
1829;504
1830;496
1831;504
1832;500
1833;507
1834;507
1835;499
1836;504
1837;511
1838;508
1839;501
1840;499
1841;507
1842;507
1843;508
1844;514
1845;505
1846;495
1847;505
1848;506
1849;504
1850;492
1851;499
1852;503
1853;501
1854;512
1855;504
1856;508
1857;499
1858;502
1859;511
1860;499
1861;505
1862;500
1863;504
1864;511
1865;501
1866;499
1867;498
1868;500
1869;505
1870;504
1871;505
1872;504
1873;507
1874;509
1875;504
1876;500
1877;500
1878;500
1879;512
1880;502
1881;499
1882;498
1883;507
1884;507
1885;494
1886;502
1887;500
1888;502
1889;512
1890;502
1891;494
1892;503
1893;502
1894;513
1895;507
1896;498
1897;502
1898;508
1899;510
1900;500
1901;502
1902;495
1903;499
1904;507
1905;503
1906;510
1907;508
1908;501
1909;506
1910;505
1911;505
1912;494
1913;499
1914;508
1915;497
1916;502
1917;500
1918;503
1919;502
1920;504
1921;497
1922;499
1923;499
1924;504
1925;510
1926;501
1927;505
1928;502
1929;508
1930;502
1931;501
1932;502
1933;504
1934;502
1935;498
1936;507
1937;503
1938;504
1939;512
1940;507
1941;496
1942;497
1943;506
1944;507
1945;500
1946;511
1947;498
1948;497
1949;511
1950;501
1951;508
1952;507
1953;498
1954;502
1955;507
1956;510
1957;503
1958;505
1959;499
1960;503
1961;507
1962;500
1963;507
1964;505
1965;507
1966;497
1967;494
1968;502
1969;502
1970;504
1971;500
1972;504
1973;508
1974;508
1975;508
1976;498
1977;503
1978;498
1979;506
1980;503
1981;504
1982;497
1983;508
1984;509
1985;503
1986;496
1987;498
1988;510
1989;510
1990;503
1991;500
1992;499
1993;495
1994;504
1995;503
1996;506
1997;510
1998;504
1999;504
2000;494
2001;499
2002;496
2003;509
2004;507
2005;510
2006;502
2007;497
2008;504
2009;499
2010;501
2011;510
2012;492
2013;499
2014;512
2015;510
2016;498
2017;507
2018;503
2019;507
2020;502
2021;503
2022;499
2023;507
2024;508
2025;494
2026;496
2027;499
2028;500
2029;504
2030;499
2031;508
2032;503
2033;508
2034;514
2035;500
2036;500
2037;505
2038;504
2039;511
2040;504
2041;499
2042;499
2043;502
2044;504
2045;500
2046;501
2047;498
2048;503
2049;511
2050;502
2051;499
2052;505
2053;501
2054;508
2055;500
2056;510
2057;500
2058;502
2059;510
2060;500
2061;511
2062;503
2063;508
2064;505
2065;504
2066;500
2067;504
2068;499
2069;504
2070;505
2071;500
2072;499
2073;508
2074;507
2075;500
2076;504
2077;502
2078;499
2079;497
2080;502
2081;505
2082;499
2083;497
2084;505
2085;501
2086;500
2087;501
2088;507
2089;507
2090;499
2091;501
2092;504
2093;508
2094;509
2095;501
2096;493
2097;503
2098;503
2099;508
2100;502
2101;504
2102;503
2103;505
2104;499
2105;500
2106;506
2107;497
2108;499
2109;516
2110;501
2111;502
2112;503
2113;499
2114;503
2115;500
2116;507
2117;495
2118;496
2119;508
2120;499
2121;508
2122;503
2123;507
2124;504
2125;505
2126;505
2127;500
2128;501
2129;511
2130;505
2131;499
2132;501
2133;507
2134;508
2135;493
2136;504
2137;500
2138;500
2139;512
2140;502
2141;504
2142;508
2143;503
2144;502
2145;502
2146;505
2147;498
2148;508
2149;501
2150;501
2151;507
2152;497
2153;501
2154;504
2155;507
2156;504
2157;504
2158;507
2159;500
2160;512
2161;508
2162;504
2163;501
2164;505
2165;507
2166;498
2167;497
2168;499
2169;506
2170;504
2171;501
2172;503
2173;507
2174;512
2175;496
2176;504
2177;502
2178;499
2179;508
2180;503
2181;497
2182;492
2183;505
2184;505
2185;506
2186;506
2187;501
2188;505
2189;504
2190;502
2191;507
2192;504
2193;503
2194;507
2195;499
2196;507
2197;502
2198;500
2199;506
2200;503
2201;495
2202;506
2203;507
2204;516
2205;504
2206;496
2207;497
2208;498
2209;507
2210;504
2211;497
2212;506
2213;503
2214;508
2215;502
2216;494
2217;504
2218;504
2219;507
2220;508
2221;501
2222;508
2223;503
2224;504
2225;505
2226;495
2227;504
2228;501
2229;504
2230;505
2231;499
2232;505
2233;500
2234;509
2235;506
2236;495
2237;492
2238;508
2239;516
2240;512
2241;496
2242;507
2243;506
2244;504
2245;496
2246;499
2247;500
2248;501
2249;505
2250;507
2251;497
2252;501
2253;503
2254;501
2255;504
2256;505
2257;508
2258;506
2259;508
2260;503
2261;496
2262;505
2263;502
2264;512
2265;498
2266;494
2267;499
2268;501
2269;511
2270;504
2271;499
2272;499
2273;503
2274;514
2275;504
2276;506
2277;498
2278;504
2279;502
2280;505
2281;511
2282;495
2283;495
2284;502
2285;510
2286;504
2287;503
2288;502
2289;509
2290;505
2291;499
2292;498
2293;504
2294;502
2295;499
2296;509
2297;501
2298;496
2299;502
2300;505
2301;508
2302;502
2303;504
2304;500
2305;501
2306;503
2307;499
2308;504
2309;500
2310;502
2311;509
2312;504
2313;504
2314;504
2315;502
2316;499
2317;510
2318;502
2319;504
2320;501
2321;504
2322;502
2323;505
2324;501
2325;505
2326;509
2327;497
2328;499
2329;495
2330;503
2331;504
2332;503
2333;504
2334;502
2335;510
2336;502
2337;493
2338;503
2339;513
2340;498
2341;499
2342;499
2343;503
2344;509
2345;503
2346;507
2347;498
2348;504
2349;508
2350;504
2351;501
2352;501
2353;496
2354;508
2355;508
2356;503
2357;503
2358;505
2359;509
2360;505
2361;495
2362;503
2363;506
2364;505
2365;501
2366;510
2367;496
2368;500
2369;503
2370;505
2371;507
2372;505
2373;504
2374;511
2375;506
2376;499
2377;504
2378;505
2379;502
2380;500
2381;498
2382;504
2383;497
2384;503
2385;505
2386;510
2387;502
2388;503
2389;511
2390;501
2391;491
2392;502
2393;501
2394;510
2395;505
2396;504
2397;503
2398;505
2399;500
2400;499
2401;510
2402;498
2403;504
2404;503
2405;504
2406;502
2407;502
2408;501
2409;511
2410;503
2411;500
2412;500
2413;503
2414;503
2415;503
2416;495
2417;503
2418;513
2419;510
2420;508
2421;503
2422;508
2423;497
2424;501
2425;508
2426;504
2427;499
2428;498
2429;501
2430;511
2431;504
2432;504
2433;502
2434;502
2435;501
2436;500
2437;499
2438;498
2439;506
2440;509
2441;503
2442;500
2443;500
2444;506
2445;504
2446;500
2447;501
2448;505
2449;504
2450;503
2451;506
2452;499
2453;508
2454;514
2455;504
2456;500
2457;497
2458;502
2459;511
2460;500
2461;501
2462;501
2463;504
2464;508
2465;505
2466;501
2467;503
2468;499
2469;502
2470;508
2471;500
2472;496
2473;512
2474;507
2475;510
2476;504
2477;495
2478;499
2479;508
2480;499
2481;502
2482;499
2483;505
2484;504
2485;504
2486;504
2487;506
2488;506
2489;510
2490;502
2491;504
2492;500
2493;501
2494;503
2495;498
2496;497
2497;505
2498;501
2499;511
2500;506
2501;497
2502;505
2503;503
2504;508
2505;507
2506;499
2507;501
2508;506
2509;508
2510;507
2511;496
2512;502
2513;502
2514;504
2515;500
2516;504
2517;497
2518;507
2519;505
2520;500
2521;511
2522;500
2523;503
2524;507
2525;504
2526;497
2527;508
2528;501
2529;506
2530;500
2531;504
2532;504
2533;505
2534;505
2535;502
2536;497
2537;492
2538;496
2539;503
2540;506
2541;499
2542;503
2543;503
2544;512
2545;510
2546;504
2547;493
2548;502
2549;511
2550;502
2551;507
2552;510
2553;503
2554;503
2555;501
2556;508
2557;500
2558;503
2559;504
2560;500
2561;504
2562;499
2563;498
2564;510
2565;503
2566;501
2567;503
2568;504
2569;505
2570;500
2571;507
2572;507
2573;499
2574;506
2575;508
2576;501
2577;495
2578;505
2579;508
2580;510
2581;508
2582;505
2583;503
2584;508
2585;506
2586;506
2587;499
2588;503
2589;507
2590;499
2591;508
2592;505
2593;501
2594;505
2595;501
2596;502
2597;495
2598;505
2599;510
2600;502
2601;494
2602;498
2603;504
2604;507
2605;498
2606;503
2607;504
2608;502
2609;499
2610;505
2611;501
2612;500
2613;506
2614;510
2615;505
2616;504
2617;497
2618;501
2619;508
2620;497
2621;503
2622;507
2623;507
2624;511
2625;503
2626;496
2627;499
2628;501
2629;507
2630;503
2631;510
2632;500
2633;496
2634;512
2635;502
2636;504
2637;496
2638;497
2639;505
2640;506
2641;500
2642;496
2643;504
2644;504
2645;499
2646;507
2647;499
2648;506
2649;511
2650;497
2651;502
2652;497
2653;508
2654;502
2655;504
2656;509
2657;503
2658;510
2659;498
2660;500
2661;502
2662;502
2663;502
2664;513
2665;508
2666;499
2667;500
2668;504
2669;501
2670;504
2671;501
2672;497
2673;502
2674;503
2675;510
2676;513
2677;502
2678;503
2679;499
2680;500
2681;508
2682;498
2683;499
2684;503
2685;497
2686;498
2687;496
2688;510
2689;505
2690;508
2691;501
2692;507
2693;506
2694;515
2695;501
2696;499
2697;497
2698;503
2699;510
2700;499
2701;499
2702;504
2703;505
2704;512
2705;503
2706;494
2707;500
2708;504
2709;512
2710;515
2711;513
2712;498
2713;503
2714;503
2715;497
2716;496
2717;497
2718;501
2719;505
2720;505
2721;508
2722;502
2723;501
2724;507
2725;501
2726;499
2727;504
2728;509
2729;501
2730;503
2731;508
2732;502
2733;510
2734;499
2735;499
2736;499
2737;498
2738;499
2739;513
2740;511
2741;496
2742;492
2743;505
2744;513
2745;502
2746;502
2747;502
2748;505
2749;503
2750;499
2751;508
2752;493
2753;500
2754;497
2755;508
2756;506
2757;503
2758;505
2759;507
2760;508
2761;492
2762;499
2763;504
2764;506
2765;508
2766;507
2767;495
2768;501
2769;504
2770;508
2771;508
2772;504
2773;504
2774;504
2775;501
2776;496
2777;502
2778;501
2779;511
2780;505
2781;496
2782;507
2783;507
2784;504
2785;504
2786;501
2787;505
2788;502
2789;507
2790;506
2791;502
2792;506
2793;504
2794;511
2795;498
2796;500
2797;506
2798;500
2799;508
2800;497
2801;502
2802;498
2803;498
2804;504
2805;512
2806;502
2807;502
2808;508
2809;510
2810;503
2811;504
2812;494
2813;502
2814;496
2815;504
2816;506
2817;502
2818;496
2819;508
2820;500
2821;502
2822;499
2823;511
2824;508
2825;502
2826;497
2827;500
2828;497
2829;505
2830;508
2831;503
2832;500
2833;508
2834;503
2835;502
2836;510
2837;508
2838;501
2839;500
2840;503
2841;505
2842;497
2843;504
2844;508
2845;502
2846;502
2847;507
2848;501
2849;513
2850;506
2851;496
2852;495
2853;504
2854;507
2855;504
2856;504
2857;503
2858;506
2859;507
2860;499
2861;502
2862;496
2863;494
2864;512
2865;503
2866;501
2867;498
2868;508
2869;506
2870;502
2871;502
2872;504
2873;503
2874;512
2875;502
2876;501
2877;502
2878;502
2879;505
2880;502
2881;496
2882;492
2883;501
2884;506
2885;502
2886;498
2887;500
2888;505
2889;514
2890;507
2891;503
2892;503
2893;507
2894;507
2895;502
2896;504
2897;500
2898;504
2899;504
2900;497
2901;508
2902;508
2903;496
2904;499
2905;508
2906;504
2907;503
2908;508
2909;509
2910;504
2911;508
2912;500
2913;508
2914;498
2915;506
2916;509
2917;494
2918;504
2919;507
2920;506
2921;507
2922;499
2923;507
2924;499
2925;507
2926;506
2927;501
2928;507
2929;500
2930;501
2931;502
2932;507
2933;499
2934;505
2935;499
2936;504
2937;507
2938;499
2939;508
2940;506
2941;505
2942;499
2943;504
2944;505
2945;501
2946;512
2947;494
2948;503
2949;500
2950;500
2951;502
2952;499
2953;510
2954;503
2955;506
2956;495
2957;500
2958;500
2959;506
2960;503
2961;504
2962;502
2963;509
2964;506
2965;504
2966;512
2967;494
2968;501
2969;506
2970;499
2971;500
2972;498
2973;503
2974;504
2975;500
2976;500
2977;504
2978;508
2979;510
2980;501
2981;501
2982;508
2983;503
2984;503
2985;508
2986;500
2987;504
2988;502
2989;503
2990;494
2991;498
2992;502
2993;501
2994;504
2995;502
2996;499
2997;499
2998;510
2999;512
3000;508
3001;504
3002;504
3003;503
3004;505
3005;497
3006;500
3007;505
3008;499
3009;499
3010;502
3011;505
3012;502
3013;508
3014;514
3015;500
3016;498
3017;500
3018;499
3019;502
3020;504
3021;502
3022;502
3023;501
3024;504
3025;505
3026;508
3027;501
3028;502
3029;512
3030;502
3031;499
3032;502
3033;501
3034;496
3035;503
3036;506
3037;505
3038;511
3039;502
3040;505
3041;499
3042;496
3043;510
3044;508
3045;498
3046;503
3047;503
3048;496
3049;503
3050;504
3051;502
3052;497
3053;506
3054;510
3055;501
3056;501
3057;507
3058;505
3059;511
3060;502
3061;496
3062;500
3063;505
3064;508
3065;501
3066;502
3067;509
3068;504
3069;503
3070;504
3071;498
3072;495
3073;497
3074;502
3075;503
3076;496
3077;499
3078;505
3079;502
3080;511
3081;511
3082;491
3083;506
3084;513
3085;502
3086;500
3087;504
3088;500
3089;507
3090;513
3091;506
3092;498
3093;501
3094;506
3095;509
3096;507
3097;498
3098;510
3099;499
3100;497
3101;504
3102;496
3103;499
3104;509
3105;512
3106;496
3107;504
3108;503
3109;508
3110;503
3111;498
3112;502
3113;508
3114;499
3115;500
3116;507
3117;503
3118;495
3119;507
3120;504
3121;507
3122;497
3123;503
3124;511
3125;504
3126;504
3127;501
3128;506
3129;505
3130;502
3131;500
3132;497
3133;503
3134;504
3135;502
3136;500
3137;512
3138;506
3139;511
3140;505
3141;501
3142;502
3143;508
3144;504
3145;500
3146;492
3147;496
3148;509
3149;506
3150;500
3151;505
3152;499
3153;510
3154;507
3155;502
3156;502
3157;499
3158;511
3159;518
3160;499
3161;500
3162;504
3163;491
3164;501
3165;500
3166;504
3167;505
3168;500
3169;511
3170;503
3171;506
3172;502
3173;501
3174;508
3175;495
3176;499
3177;504
3178;504
3179;504
3180;504
3181;498
3182;504
3183;502
3184;505
3185;503
3186;496
3187;506
3188;502
3189;511
3190;500
3191;497
3192;503
3193;499
3194;505
3195;507
3196;508
3197;502
3198;500
3199;507
3200;500
3201;502
3202;500
3203;503
3204;508
3205;508
3206;505
3207;497
3208;504
3209;511
3210;510
3211;499
3212;504
3213;495
3214;497
3215;499
3216;506
3217;502
3218;492
3219;507
3220;505
3221;498
3222;500
3223;507
3224;513
3225;505
3226;504
3227;504
3228;501
3229;503
3230;497
3231;503
3232;497
3233;500
3234;514
3235;504
3236;505
3237;503
3238;509
3239;501
3240;504
3241;503
3242;494
3243;508
3244;512
3245;504
3246;496
3247;502
3248;505
3249;498
3250;502
3251;503
3252;503
3253;510
3254;498
3255;501
3256;505
3257;505
3258;510
3259;505
3260;504
3261;508
3262;503
3263;505
3264;506
3265;505
3266;499
3267;493
3268;506
3269;507
3270;502
3271;502
3272;499
3273;504
3274;506
3275;504
3276;501
3277;501
3278;502
3279;507
3280;516
3281;502
3282;496
3283;509
3284;509
3285;498
3286;496
3287;497
3288;504
3289;506
3290;506
3291;512
3292;504
3293;500
3294;506
3295;509
3296;500
3297;497
3298;505
3299;511
3300;500
3301;503
3302;498
3303;499
3304;508
3305;508
3306;497
3307;514
3308;498
3309;509
3310;501
3311;508
3312;509
3313;510
3314;511
3315;503
3316;497
3317;500
3318;504
3319;511
3320;499
3321;493
3322;499
3323;506
3324;508
3325;506
3326;500
3327;504
3328;506
3329;510
3330;496
3331;492
3332;507
3333;504
3334;507
3335;503
3336;504
3337;499
3338;504
3339;500
3340;503
3341;502
3342;508
3343;503
3344;500
3345;502
3346;498
3347;507
3348;507
3349;512
3350;499
3351;504
3352;508
3353;505
3354;499
3355;494
3356;504
3357;499
3358;494
3359;504
3360;503
3361;503
3362;505
3363;512
3364;508
3365;504
3366;501
3367;501
3368;504
3369;501
3370;497
3371;505
3372;497
3373;507
3374;508
3375;507
3376;499
3377;500
3378;504
3379;505
3380;502
3381;504
3382;496
3383;511
3384;507
3385;506
3386;497
3387;496
3388;503
3389;508
3390;502
3391;507
3392;502
3393;506
3394;505
3395;500
3396;503
3397;500
3398;499
3399;499
3400;509
3401;504
3402;497
3403;499
3404;509
3405;502
3406;497
3407;503
3408;505
3409;504
3410;506
3411;507
3412;499
3413;504
3414;508
3415;503
3416;499
3417;496
3418;507
3419;507
3420;507
3421;506
3422;503
3423;500
3424;510
3425;503
3426;507
3427;502
3428;504
3429;511
3430;505
3431;503
3432;501
3433;499
3434;498
3435;509
3436;501
3437;504
3438;502
3439;509
3440;502
3441;496
3442;498
3443;504
3444;520
3445;511
3446;502
3447;493
3448;499
3449;503
3450;502
3451;499
3452;494
3453;504
3454;504
3455;503
3456;505
3457;508
3458;511
3459;505
3460;499
3461;504
3462;501
3463;505
3464;499
3465;502
3466;498
3467;509
3468;500
3469;507
3470;500
3471;497
3472;497
3473;498
3474;510
3475;510
3476;496
3477;499
3478;505
3479;506
3480;505
3481;506
3482;508
3483;507
3484;509
3485;503
3486;503
3487;497
3488;508
3489;508
3490;499
3491;500
3492;500
3493;500
3494;503
3495;507
3496;499
3497;504
3498;503
3499;505
3500;505
3501;507
3502;504
3503;502
3504;513
3505;499
3506;496
3507;499
3508;508
3509;506
3510;505
3511;505
3512;501
3513;507
3514;505
3515;506
3516;499
3517;500
3518;504
3519;508
3520;499
3521;505
3522;495
3523;504
3524;507
3525;499
3526;501
3527;497
3528;500
3529;512
3530;502
3531;498
3532;507
3533;507
3534;511
3535;503
3536;499
3537;497
3538;501
3539;509
3540;497
3541;500
3542;504
3543;506
3544;522
3545;506
3546;503
3547;495
3548;505
3549;504
3550;498
3551;496
3552;508
3553;504
3554;512
3555;507
3556;504
3557;497
3558;501
3559;505
3560;504
3561;508
3562;504
3563;502
3564;505
3565;505
3566;500
3567;495
3568;503
3569;504
3570;502
3571;505
3572;505
3573;502
3574;504
3575;505
3576;502
3577;497
3578;500
3579;511
3580;505
3581;509
3582;496
3583;503
3584;508
3585;505
3586;499
3587;503
3588;496
3589;503
3590;505
3591;505
3592;507
3593;509
3594;515
3595;499
3596;500
3597;501
3598;500
3599;511
3600;505
3601;492
3602;502
3603;505
3604;509
3605;504
3606;494
3607;502
3608;502
3609;510
3610;502
3611;502
3612;508
3613;496
3614;504
3615;507
3616;498
3617;504
3618;499
3619;509
3620;501
3621;498
3622;505
3623;505
3624;505
3625;501
3626;498
3627;501
3628;503
3629;508
3630;505
3631;505
3632;508
3633;498
3634;505
3635;505
3636;501
3637;511
3638;501
3639;505
3640;502
3641;500
3642;506
3643;498
3644;510
3645;506
3646;503
3647;504
3648;497
3649;504
3650;503
3651;496
3652;500
3653;503
3654;503
3655;507
3656;503
3657;490
3658;501
3659;509
3660;508
3661;515
3662;493
3663;496
3664;505
3665;502
3666;507
3667;503
3668;504
3669;505
3670;506
3671;502
3672;497
3673;503
3674;506
3675;505
3676;504
3677;504
3678;503
3679;496
3680;499
3681;499
3682;502
3683;496
3684;499
3685;514
3686;514
3687;495
3688;502
3689;493
3690;500
3691;507
3692;500
3693;512
3694;507
3695;492
3696;508
3697;498
3698;505
3699;504
3700;505
3701;506
3702;500
3703;501
3704;503
3705;504
3706;502
3707;503
3708;512
3709;509
3710;507
3711;500
3712;502
3713;501
3714;495
3715;503
3716;509
3717;508
3718;506
3719;504
3720;507
3721;508
3722;502
3723;503
3724;500
3725;500
3726;505
3727;504
3728;510
3729;502
3730;506
3731;508
3732;500
3733;501
3734;502
3735;510
3736;497
3737;499
3738;506
3739;504
3740;500
3741;507
3742;503
3743;499
3744;504
3745;500
3746;508
3747;504
3748;504
3749;501
3750;500
3751;504
3752;507
3753;504
3754;502
3755;505
3756;496
3757;505
3758;499
3759;505
3760;505
3761;497
3762;504
3763;504
3764;509
3765;502
3766;505
3767;498
3768;499
3769;502
3770;503
3771;503
3772;509
3773;509
3774;501
3775;510
3776;507
3777;495
3778;497
3779;506
3780;507
3781;499
3782;499
3783;496
3784;515
3785;498
3786;504
3787;496
3788;505
3789;501
3790;501
3791;507
3792;501
3793;499
3794;504
3795;513
3796;510
3797;499
3798;499
3799;499
3800;504
3801;502
3802;502
3803;505
3804;510
3805;505
3806;505
3807;496
3808;499
3809;505
3810;502
3811;499
3812;503
3813;507
3814;499
3815;510
3816;504
3817;503
3818;497
3819;500
3820;505
3821;505
3822;501
3823;498
3824;506
3825;504
3826;501
3827;500
3828;504
3829;513
3830;499
3831;508
3832;498
3833;499
3834;501
3835;500
3836;512
3837;499
3838;504
3839;510
3840;505
3841;508
3842;504
3843;497
3844;510
3845;499
3846;490
3847;505
3848;500
3849;505
3850;504
3851;497
3852;503
3853;502
3854;504
3855;499
3856;504
3857;499
3858;507
3859;508
3860;504
3861;503
3862;499
3863;500
3864;510
3865;507
3866;498
3867;496
3868;500
3869;505
3870;511
3871;509
3872;499
3873;507
3874;509
3875;503
3876;500
3877;495
3878;504
3879;509
3880;502
3881;506
3882;499
3883;503
3884;507
3885;508
3886;495
3887;498
3888;498
3889;503
3890;502
3891;507
3892;504
3893;504
3894;509
3895;503
3896;498
3897;502
3898;504
3899;504
3900;502
3901;499
3902;504
3903;503
3904;505
3905;503
3906;501
3907;503
3908;508
3909;510
3910;507
3911;504
3912;496
3913;504
3914;512
3915;504
3916;501
3917;501
3918;502
3919;505
3920;506
3921;503
3922;501
3923;502
3924;507
3925;508
3926;507
3927;500
3928;501
3929;505
3930;503
3931;496
3932;499
3933;500
3934;514
3935;499
3936;498
3937;502
3938;498
3939;505
3940;501
3941;501
3942;505
3943;506
3944;502
3945;507
3946;505
3947;497
3948;502
3949;510
3950;503
3951;507
3952;503
3953;505
3954;502
3955;500
3956;506
3957;507
3958;495
3959;511
3960;499
3961;504
3962;503
3963;511
3964;503
3965;499
3966;504
3967;502
3968;504
3969;507
3970;507
3971;504
3972;496
3973;505
3974;508
3975;508
3976;510
3977;495
3978;511
3979;504
3980;499
3981;500
3982;508
3983;508
3984;497
3985;505
3986;506
3987;506
3988;503
3989;504
3990;505
3991;504
3992;497
3993;513
3994;497
3995;509
3996;508
3997;492
3998;505
3999;507
4000;503
4001;504
4002;502
4003;511
4004;505
4005;505
4006;501
4007;504
4008;508
4009;508
4010;503
4011;508
4012;501
4013;498
4014;504
4015;505
4016;504
4017;493
4018;504
4019;503
4020;503
4021;498
4022;496
4023;502
4024;515
4025;506
4026;508
4027;502
4028;506
4029;502
4030;501
4031;504
4032;500
4033;498
4034;507
4035;507
4036;508
4037;496
4038;505
4039;511
4040;498
4041;504
4042;504
4043;500
4044;512
4045;501
4046;491
4047;507
4048;504
4049;506
4050;499
4051;497
4052;498
4053;506
4054;514
4055;504
4056;510
4057;503
4058;504
4059;511
4060;504
4061;504
4062;500
4063;504
4064;500
4065;505
4066;497
4067;495
4068;503
4069;508
4070;507
4071;502
4072;504
4073;505
4074;511
4075;504
4076;494
4077;502
4078;501
4079;504
4080;496
4081;504
4082;504
4083;499
4084;509
4085;508
4086;499
4087;500
4088;508
4089;508
4090;504
4091;500
4092;497
4093;507
4094;504
4095;496
4096;507
4097;502
4098;508
4099;506
4100;497
4101;496
4102;500
4103;508
4104;510
4105;504
4106;496
4107;495
4108;501
4109;504
4110;503
4111;503
4112;499
4113;502
4114;503
4115;502
4116;502
4117;503
4118;503
4119;509
4120;504
4121;505
4122;499
4123;503
4124;503
4125;506
4126;504
4127;503
4128;497
4129;504
4130;505
4131;498
4132;500
4133;511
4134;503
4135;504
4136;505
4137;497
4138;501
4139;500
4140;503
4141;508
4142;498
4143;503
4144;517
4145;508
4146;503
4147;498
4148;501
4149;504
4150;505
4151;502
4152;499
4153;501
4154;507
4155;507
4156;500
4157;504
4158;502
4159;507
4160;508
4161;501
4162;492
4163;508
4164;505
4165;507
4166;500
4167;498
4168;501
4169;510
4170;498
4171;499
4172;499
4173;508
4174;508
4175;502
4176;503
4177;505
4178;510
4179;512
4180;500
4181;499
4182;498
4183;510
4184;508
4185;499
4186;502
4187;497
4188;503
4189;499
4190;501
4191;506
4192;502
4193;506
4194;501
4195;498
4196;505
4197;498
4198;501
4199;508
4200;499
4201;508
4202;504
4203;504
4204;504
4205;496
4206;508
4207;503
4208;509
4209;511
4210;502
4211;499
4212;504
4213;505
4214;510
4215;503
4216;509
4217;510
4218;508
4219;504
4220;489
4221;500
4222;502
4223;502
4224;511
4225;507
4226;507
4227;498
4228;504
4229;508
4230;505
4231;503
4232;502
4233;504
4234;500
4235;508
4236;511
4237;497
4238;510
4239;494
4240;497
4241;504
4242;507
4243;502
4244;510
4245;505
4246;499
4247;494
4248;504
4249;499
4250;500
4251;505
4252;501
4253;508
4254;512
4255;509
4256;495
4257;503
4258;505
4259;505
4260;505
4261;499
4262;503
4263;498
4264;511
4265;509
4266;499
4267;502
4268;503
4269;505
4270;504
4271;501
4272;497
4273;499
4274;508
4275;501
4276;504
4277;511
4278;510
4279;507
4280;497
4281;495
4282;500
4283;505
4284;503
4285;498
4286;505
4287;502
4288;504
4289;511
4290;503
4291;500
4292;501
4293;505
4294;502
4295;496
4296;504
4297;504
4298;500
4299;513
4300;502
4301;499
4302;500
4303;505
4304;507
4305;494
4306;502
4307;507
4308;506
4309;507
4310;504
4311;504
4312;507
4313;504
4314;504
4315;512
4316;503
4317;503
4318;502
4319;505
4320;492
4321;496
4322;499
4323;495
4324;514
4325;505
4326;503
4327;502
4328;511
4329;502
4330;503
4331;509
4332;498
4333;503
4334;502
4335;502
4336;507
4337;496
4338;500
4339;509
4340;507
4341;505
4342;501
4343;511
4344;512
4345;502
4346;501
4347;502
4348;507
4349;496
4350;501
4351;515
4352;507
4353;503
4354;501
4355;506
4356;510
4357;494
4358;498
4359;506
4360;500
4361;503
4362;500
4363;496
4364;509
4365;504
4366;504
4367;502
4368;503
4369;508
4370;502
4371;497
4372;502
4373;507
4374;498
4375;506
4376;510
4377;500
4378;509
4379;508
4380;499
4381;500
4382;504
4383;508
4384;500
4385;505
4386;502
4387;497
4388;503
4389;502
4390;504
4391;500
4392;502
4393;505
4394;505
4395;504
4396;507
4397;504
4398;497
4399;507
4400;496
4401;505
4402;502
4403;501
4404;505
4405;501
4406;503
4407;508
4408;503
4409;499
4410;503
4411;507
4412;501
4413;504
4414;507
4415;503
4416;497
4417;500
4418;508
4419;510
4420;506
4421;498
4422;501
4423;504
4424;515
4425;510
4426;499
4427;499
4428;501
4429;504
4430;504
4431;500
4432;500
4433;504
4434;500
4435;505
4436;508
4437;505
4438;498
4439;507
4440;505
4441;499
4442;502
4443;508
4444;503
4445;507
4446;496
4447;495
4448;504
4449;509
4450;494
4451;496
4452;507
4453;505
4454;510
4455;509
4456;499
4457;504
4458;502
4459;509
4460;500
4461;499
4462;497
4463;504
4464;511
4465;505
4466;504
4467;504
4468;506
4469;500
4470;508
4471;507
4472;503
4473;511
4474;505
4475;503
4476;507
4477;500
4478;499
4479;499
4480;505
4481;507
4482;512
4483;497
4484;509
4485;506
4486;501
4487;498
4488;510
4489;511
4490;498
4491;499
4492;503
4493;507
4494;506
4495;504
4496;511
4497;495
4498;505
4499;512
4500;503
4501;495
4502;493
4503;503
4504;508
4505;503
4506;501
4507;502
4508;508
4509;507
4510;503
4511;504
4512;507
4513;505
4514;501
4515;504
4516;504
4517;503
4518;499
4519;509
4520;501
4521;498
4522;498
4523;506
4524;505
4525;503
4526;506
4527;503
4528;500
4529;504
4530;496
4531;507
4532;505
4533;503
4534;499
4535;508
4536;499
4537;502
4538;504
4539;504
4540;493
4541;510
4542;498
4543;503
4544;505
4545;497
4546;502
4547;499
4548;499
4549;505
4550;502
4551;509
4552;511
4553;508
4554;512
4555;498
4556;502
4557;505
4558;507
4559;511
4560;501
4561;496
4562;500
4563;506
4564;508
4565;499
4566;497
4567;495
4568;503
4569;513
4570;498
4571;512
4572;508
4573;506
4574;508
4575;501
4576;499
4577;497
4578;508
4579;502
4580;497
4581;506
4582;499
4583;499
4584;506
4585;507
4586;507
4587;496
4588;504
4589;507
4590;504
4591;505
4592;509
4593;496
4594;505
4595;500
4596;508
4597;502
4598;506
4599;509
4600;500
4601;497
4602;501
4603;506
4604;507
4605;505
4606;506
4607;497
4608;494
4609;505
4610;507
4611;493
4612;501
4613;505
4614;509
4615;504
4616;507
4617;500
4618;508
4619;507
4620;506
4621;505
4622;495
4623;503
4624;492
4625;504
4626;507
4627;508
4628;501
4629;512
4630;505
4631;501
4632;494
4633;500
4634;503
4635;505
4636;501
4637;499
4638;503
4639;507
4640;506
4641;505
4642;503
4643;498
4644;508
4645;504
4646;501
4647;503
4648;496
4649;507
4650;502
4651;499
4652;501
4653;507
4654;510
4655;498
4656;494
4657;504
4658;506
4659;505
4660;510
4661;500
4662;504
4663;507
4664;514
4665;504
4666;504
4667;498
4668;505
4669;511
4670;492
4671;497
4672;501
4673;499
4674;511
4675;504
4676;505
4677;500
4678;504
4679;510
4680;502
4681;502
4682;502
4683;500
4684;510
4685;506
4686;505
4687;499
4688;496
4689;504
4690;505
4691;497
4692;498
4693;504
4694;509
4695;497
4696;503
4697;501
4698;510
4699;509
4700;507
4701;503
4702;504
4703;503
4704;511
4705;509
4706;509
4707;501
4708;500
4709;502
4710;504
4711;500
4712;497
4713;503
4714;499
4715;503
4716;503
4717;500
4718;504
4719;504
4720;496
4721;501
4722;502
4723;500
4724;507
4725;502
4726;507
4727;504
4728;503
4729;511
4730;506
4731;501
4732;499
4733;501
4734;502
4735;498
4736;513
4737;503
4738;501
4739;504
4740;502
4741;505
4742;504
4743;512
4744;507
4745;499
4746;504
4747;496
4748;491
4749;508
4750;503
4751;497
4752;503
4753;505
4754;510
4755;504
4756;503
4757;504
4758;499
4759;505
4760;500
4761;500
4762;505
4763;500
4764;510
4765;502
4766;495
4767;499
4768;500
4769;508
4770;507
4771;506
4772;504
4773;501
4774;511
4775;507
4776;497
4777;499
4778;504
4779;502
4780;507
4781;498
4782;505
4783;500
4784;504
4785;501
4786;502
4787;497
4788;506
4789;510
4790;505
4791;498
4792;505
4793;498
4794;509
4795;506
4796;505
4797;502
4798;507
4799;503
4800;503
4801;511
4802;500
4803;501
4804;505
4805;499
4806;498
4807;499
4808;503
4809;510
4810;508
4811;503
4812;501
4813;506
4814;510
4815;500
4816;500
4817;497
4818;502
4819;512
4820;502
4821;496
4822;502
4823;510
4824;502
4825;508
4826;497
4827;500
4828;503
4829;509
4830;508
4831;504
4832;508
4833;505
4834;507
4835;504
4836;503
4837;499
4838;506
4839;503
4840;499
4841;508
4842;498
4843;499
4844;502
4845;505
4846;503
4847;499
4848;506
4849;500
4850;505
4851;502
4852;496
4853;512
4854;506
4855;504
4856;505
4857;502
4858;507
4859;502
4860;500
4861;504
4862;503
4863;504
4864;503
4865;504
4866;495
4867;502
4868;507
4869;512
4870;501
4871;507
4872;497
4873;505
4874;502
4875;498
4876;506
4877;502
4878;501
4879;502
4880;506
4881;506
4882;503
4883;500
4884;503
4885;499
4886;504
4887;505
4888;500
4889;512
4890;504
4891;505
4892;494
4893;500
4894;507
4895;505
4896;500
4897;502
4898;500
4899;502
4900;504
4901;506
4902;507
4903;497
4904;510
4905;503
4906;502
4907;499
4908;500
4909;511
4910;504
4911;505
4912;497
4913;503
4914;505
4915;502
4916;503
4917;500
4918;497
4919;498
4920;511
4921;500
4922;505
4923;501
4924;513
4925;501
4926;504
4927;504
4928;508
4929;508
4930;500
4931;499
4932;497
4933;502
4934;507
4935;503
4936;507
4937;495
4938;503
4939;507
4940;502
4941;507
4942;506
4943;501
4944;513
4945;508
4946;493
4947;497
4948;506
4949;504
4950;500
4951;505
4952;502
4953;504
4954;509
4955;503
4956;506
4957;501
4958;502
4959;507
4960;504
4961;499
4962;496
4963;504
4964;509
4965;511
4966;505
4967;490
4968;496
4969;496
4970;507
4971;507
4972;501
4973;515
4974;506
4975;508
4976;506
4977;504
4978;497
4979;504
4980;504
4981;505
4982;498
4983;497
4984;494
4985;499
4986;503
4987;502
4988;508
4989;505
4990;508
4991;504
4992;504
4993;500
4994;505
4995;503
4996;498
4997;504
4998;506
4999;505
5000;499
5001;499
5002;500
5003;506
5004;501
5005;499
5006;499
5007;505
5008;511
5009;509
5010;505
5011;498
5012;503
5013;508
5014;507
5015;503
5016;505
5017;499
5018;505
5019;505
5020;501
5021;503
5022;507
5023;505
5024;512
5025;501
5026;500
5027;505
5028;499
5029;504
5030;500
5031;500
5032;504
5033;506
5034;512
5035;504
5036;501
5037;504
5038;500
5039;510
5040;496
5041;503
5042;498
5043;501
5044;515
5045;497
5046;502
5047;502
5048;507
5049;505
5050;504
5051;504
5052;498
5053;497
5054;502
5055;501
5056;503
5057;498
5058;510
5059;511
5060;504
5061;494
5062;499
5063;498
5064;512
5065;504
5066;491
5067;506
5068;501
5069;508
5070;507
5071;501
5072;500
5073;504
5074;507
5075;508
5076;498
5077;507
5078;499
5079;511
5080;511
5081;494
5082;501
5083;503
5084;500
5085;509
5086;493
5087;501
5088;500
5089;512
5090;504
5091;497
5092;504
5093;506
5094;508
5095;511
5096;497
5097;504
5098;503
5099;505
5100;500
5101;500
5102;500
5103;503
5104;510
5105;511
5106;499
5107;507
5108;505
5109;507
5110;503
5111;504
5112;504
5113;504
5114;505
5115;495
5116;499
5117;499
5118;499
5119;504
5120;499
5121;505
5122;505
5123;508
5124;506
5125;506
5126;501
5127;503
5128;506
5129;504
5130;503
5131;508
5132;501
5133;499
5134;511
5135;501
5136;505
5137;499
5138;504
5139;509
5140;504
5141;504
5142;504
5143;508
5144;503
5145;503
5146;505
5147;503
5148;510
5149;500
5150;510
5151;503
5152;499
5153;512
5154;514
5155;508
5156;498
5157;500
5158;503
5159;512
5160;499
5161;497
5162;503
5163;500
5164;511
5165;500
5166;504
5167;506
5168;506
5169;503
5170;506
5171;505
5172;498
5173;513
5174;503
5175;502
5176;508
5177;507
5178;511
5179;508
5180;500
5181;502
5182;500
5183;498
5184;503
5185;506
5186;507
5187;505
5188;505
5189;501
5190;503
5191;497
5192;500
5193;506
5194;504
5195;505
5196;504
5197;496
5198;502
5199;498
5200;500
5201;503
5202;503
5203;504
5204;510
5205;509
5206;509
5207;495
5208;502
5209;504
5210;503
5211;493
5212;498
5213;506
5214;505
5215;508
5216;502
5217;503
5218;505
5219;507
5220;512
5221;499
5222;500
5223;504
5224;503
5225;501
5226;512
5227;494
5228;503
5229;507
5230;502
5231;500
5232;499
5233;502
5234;514
5235;502
5236;500
5237;505
5238;510
5239;507
5240;500
5241;503
5242;500
5243;507
5244;500
5245;501
5246;498
5247;500
5248;509
5249;506
5250;505
5251;498
5252;504
5253;501
5254;512
5255;496
5256;508
5257;503
5258;496
5259;505
5260;496
5261;501
5262;498
5263;509
5264;506
5265;504
5266;501
5267;496
5268;503
5269;512
5270;501
5271;508
5272;509
5273;507
5274;511
5275;499
5276;505
5277;500
5278;499
5279;507
5280;504
5281;503
5282;502
5283;505
5284;498
5285;500
5286;503
5287;505
5288;500
5289;504
5290;504
5291;499
5292;506
5293;508
5294;508
5295;502
5296;501
5297;495
5298;506
5299;510
5300;500
5301;493
5302;502
5303;507
5304;503
5305;509
5306;492
5307;506
5308;504
5309;516
5310;500
5311;492
5312;511
5313;501
5314;511
5315;510
5316;502
5317;492
5318;507
5319;511
5320;509
5321;503
5322;496
5323;502
5324;499
5325;501
5326;503
5327;496
5328;502
5329;509
5330;498
5331;496
5332;500
5333;505
5334;497
5335;499
5336;508
5337;501
5338;502
5339;503
5340;505
5341;504
5342;504
5343;513
5344;510
5345;495
5346;506
5347;494
5348;497
5349;503
5350;504
5351;502
5352;500
5353;507
5354;513
5355;510
5356;504
5357;498
5358;504
5359;505
5360;511
5361;504
5362;503
5363;503
5364;505
5365;503
5366;498
5367;500
5368;500
5369;505
5370;510
5371;504
5372;499
5373;502
5374;510
5375;513
5376;505
5377;500
5378;503
5379;499
5380;503
5381;497
5382;497
5383;502
5384;500
5385;504
5386;499
5387;505
5388;502
5389;509
5390;498
5391;500
5392;505
5393;510
5394;505
5395;500
5396;503
5397;499
5398;510
5399;506
5400;492
5401;500
5402;502
5403;502
5404;509
5405;504
5406;500
5407;504
5408;500
5409;511
5410;504
5411;504
5412;499
5413;510
5414;500
5415;498
5416;508
5417;497
5418;504
5419;507
5420;508
5421;504
5422;497
5423;509
5424;503
5425;508
5426;499
5427;496
5428;499
5429;504
5430;508
5431;496
5432;499
5433;513
5434;509
5435;506
5436;507
5437;499
5438;506
5439;511
5440;501
5441;502
5442;496
5443;501
5444;504
5445;502
5446;505
5447;496
5448;508
5449;503
5450;505
5451;497
5452;502
5453;507
5454;511
5455;501
5456;504
5457;496
5458;506
5459;508
5460;507
5461;506
5462;499
5463;502
5464;497
5465;503
5466;501
5467;510
5468;502
5469;510
5470;500
5471;496
5472;506
5473;496
5474;513
5475;504
5476;506
5477;501
5478;502
5479;510
5480;505
5481;495
5482;499
5483;508
5484;508
5485;501
5486;490
5487;497
5488;500
5489;506
5490;506
5491;508
5492;505
5493;506
5494;508
5495;497
5496;490
5497;504
5498;496
5499;517
5500;496
5501;499
5502;510
5503;508
5504;503
5505;507
5506;504
5507;504
5508;500
5509;512
5510;504
5511;497
5512;507
5513;504
5514;506
5515;508
5516;501
5517;498
5518;507
5519;502
5520;503
5521;499
5522;511
5523;503
5524;502
5525;500
5526;506
5527;508
5528;500
5529;511
5530;500
5531;507
5532;494
5533;504
5534;503
5535;500
5536;507
5537;496
5538;504
5539;508
5540;504
5541;506
5542;497
5543;503
5544;505
5545;507
5546;501
5547;503
5548;500
5549;508
5550;498
5551;503
5552;504
5553;506
5554;509
5555;505
5556;505
5557;504
5558;509
5559;497
5560;497
5561;497
5562;502
5563;503
5564;503
5565;504
5566;499
5567;504
5568;505
5569;507
5570;502
5571;485
5572;500
5573;506
5574;504
5575;507
5576;510
5577;509
5578;502
5579;508
5580;498
5581;499
5582;499
5583;503
5584;498
5585;497
5586;504
5587;504
5588;504
5589;504
5590;502
5591;510
5592;500
5593;504
5594;509
5595;505
5596;501
5597;502
5598;507
5599;503
5600;504
5601;498
5602;503
5603;508
5604;508
5605;498
5606;505
5607;502
5608;503
5609;501
5610;500
5611;508
5612;495
5613;500
5614;511
5615;510
5616;502
5617;503
5618;506
5619;505
5620;502
5621;498
5622;497
5623;504
5624;505
5625;506
5626;500
5627;508
5628;505
5629;506
5630;501
5631;503
5632;505
5633;511
5634;504
5635;498
5636;493
5637;501
5638;504
5639;508
5640;499
5641;502
5642;504
5643;509
5644;513
5645;506
5646;499
5647;499
5648;504
5649;501
5650;501
5651;499
5652;502
5653;506
5654;505
5655;504
5656;508
5657;504
5658;504
5659;512
5660;504
5661;499
5662;504
5663;502
5664;507
5665;501
5666;506
5667;507
5668;507
5669;509
5670;503
5671;498
5672;500
5673;497
5674;506
5675;497
5676;505
5677;498
5678;508
5679;505
5680;509
5681;500
5682;497
5683;501
5684;509
5685;506
5686;505
5687;498
5688;508
5689;516
5690;499
5691;502
5692;504
5693;506
5694;501
5695;497
5696;503
5697;500
5698;507
5699;499
5700;500
5701;505
5702;498
5703;505
5704;504
5705;503
5706;504
5707;503
5708;501
5709;511
5710;508
5711;495
5712;505
5713;503
5714;508
5715;505
5716;501
5717;494
5718;500
5719;503
5720;505
5721;499
5722;501
5723;496
5724;505
5725;506
5726;505
5727;498
5728;511
5729;512
5730;502
5731;507
5732;505
5733;499
5734;505
5735;501
5736;499
5737;506
5738;506
5739;507
5740;505
5741;503
5742;498
5743;508
5744;505
5745;499
5746;508
5747;500
5748;508
5749;508
5750;498
5751;487
5752;503
5753;499
5754;509
5755;511
5756;499
5757;507
5758;504
5759;504
5760;499
5761;503
5762;507
5763;502
5764;501
5765;507
5766;503
5767;502
5768;501
5769;512
5770;508
5771;504
5772;502
5773;498
5774;506
5775;505
5776;511
5777;494
5778;505
5779;509
5780;499
5781;505
5782;499
5783;498
5784;508
5785;506
5786;503
5787;505
5788;502
5789;503
5790;501
5791;507
5792;507
5793;499
5794;514
5795;498
5796;500
5797;504
5798;495
5799;508
5800;504
5801;498
5802;506
5803;499
5804;512
5805;505
5806;499
5807;504
5808;498
5809;509
5810;507
5811;499
5812;506
5813;502
5814;502
5815;506
5816;493
5817;509
5818;499
5819;503
5820;510
5821;500
5822;502
5823;504
5824;503
5825;503
5826;500
5827;503
5828;510
5829;506
5830;504
5831;503
5832;500
5833;506
5834;506
5835;493
5836;499
5837;499
5838;513
5839;505
5840;492
5841;504
5842;506
5843;503
5844;512
5845;503
5846;505
5847;502
5848;502
5849;502
5850;499
5851;506
5852;507
5853;502
5854;510
5855;501
5856;502
5857;509
5858;503
5859;511
5860;503
5861;503
5862;499
5863;511
5864;511
5865;502
5866;496
5867;498
5868;505
5869;513
5870;507
5871;499
5872;497
5873;506
5874;505
5875;508
5876;498
5877;499
5878;504
5879;503
5880;495
5881;508
5882;493
5883;504
5884;509
5885;502
5886;502
5887;497
5888;510
5889;510
5890;503
5891;505
5892;499
5893;505
5894;507
5895;505
5896;501
5897;499
5898;502
5899;507
5900;501
5901;504
5902;504
5903;505
5904;502
5905;494
5906;508
5907;497
5908;506
5909;505
5910;502
5911;499
5912;501
5913;504
5914;516
5915;505
5916;508
5917;502
5918;507
5919;501
5920;498
5921;505
5922;505
5923;499
5924;505
5925;504
5926;500
5927;501
5928;497
5929;505
5930;500
5931;504
5932;497
5933;508
5934;509
5935;505
5936;497
5937;499
5938;505
5939;509
5940;506
5941;503
5942;503
5943;508
5944;505
5945;503
5946;497
5947;502
5948;508
5949;504
5950;500
5951;502
5952;503
5953;510
5954;504
5955;503
5956;503
5957;505
5958;503
5959;513
5960;503
5961;501
5962;506
5963;506
5964;505
5965;505
5966;500
5967;486
5968;504
5969;494
5970;507
5971;505
5972;495
5973;507
5974;505
5975;505
5976;498
5977;503
5978;497
5979;500
5980;508
5981;511
5982;503
5983;507
5984;502
5985;501
5986;508
5987;497
5988;509
5989;511
5990;501
5991;501
5992;502
5993;504
5994;502
5995;503
5996;497
5997;506
5998;504
5999;504
6000;499
6001;501
6002;504
6003;501
6004;507
6005;510
6006;502
6007;503
6008;503
6009;513
6010;503
6011;502
6012;499
6013;499
6014;504
6015;507
6016;495
6017;499
6018;497
6019;511
6020;508
6021;497
6022;498
6023;504
6024;509
6025;511
6026;496
6027;505
6028;507
6029;505
6030;508
6031;494
6032;500
6033;502
6034;506
6035;507
6036;497
6037;502
6038;502
6039;504
6040;510
6041;505
6042;508
6043;502
6044;502
6045;502
6046;500
6047;499
6048;505
6049;510
6050;505
6051;501
6052;501
6053;505
6054;502
6055;503
6056;502
6057;499
6058;510
6059;507
6060;504
6061;501
6062;494
6063;507
6064;509
6065;499
6066;491
6067;497
6068;502
6069;515
6070;502
6071;499
6072;499
6073;511
6074;513
6075;500
6076;504
6077;498
6078;503
6079;505
6080;505
6081;506
6082;503
6083;505
6084;505
6085;502
6086;502
6087;499
6088;507
6089;498
6090;501
6091;508
6092;503
6093;503
6094;510
6095;511
6096;495
6097;502
6098;510
6099;503
6100;501
6101;505
6102;496
6103;499
6104;508
6105;503
6106;499
6107;509
6108;509
6109;510
6110;509
6111;501
6112;503
6113;502
6114;509
6115;497
6116;499
6117;500
6118;500
6119;505
6120;504
6121;498
6122;496
6123;505
6124;518
6125;502
6126;502
6127;504
6128;509
6129;505
6130;500
6131;501
6132;501
6133;507
6134;502
6135;501
6136;506
6137;502
6138;507
6139;511
6140;499
6141;500
6142;499
6143;506
6144;509
6145;505
6146;500
6147;507
6148;501
6149;500
6150;508
6151;496
6152;499
6153;512
6154;504
6155;501
6156;500
6157;496
6158;500
6159;508
6160;505
6161;501
6162;502
6163;500
6164;508
6165;512
6166;506
6167;496
6168;505
6169;513
6170;504
6171;499
6172;501
6173;504
6174;507
6175;503
6176;500
6177;506
6178;508
6179;508
6180;502
6181;496
6182;502
6183;504
6184;505
6185;505
6186;495
6187;500
6188;503
6189;509
6190;504
6191;495
6192;501
6193;506
6194;506
6195;507
6196;491
6197;505
6198;504
6199;514
6200;503
6201;494
6202;504
6203;506
6204;508
6205;508
6206;496
6207;506
6208;504
6209;506
6210;502
6211;503
6212;504
6213;507
6214;498
6215;495
6216;501
6217;499
6218;498
6219;511
6220;504
6221;500
6222;507
6223;503
6224;507
6225;503
6226;501
6227;501
6228;501
6229;508
6230;499
6231;490
6232;502
6233;504
6234;508
6235;509
6236;508
6237;501
6238;504
6239;505
6240;505
6241;503
6242;500
6243;500
6244;502
6245;495
6246;510
6247;500
6248;502
6249;506
6250;500
6251;498
6252;504
6253;500
6254;511
6255;509
6256;495
6257;504
6258;503
6259;508
6260;509
6261;505
6262;503
6263;503
6264;501
6265;505
6266;497
6267;499
6268;508
6269;501
6270;501
6271;508
6272;500
6273;510
6274;506
6275;499
6276;503
6277;504
6278;499
6279;505
6280;500
6281;510
6282;503
6283;511
6284;509
6285;502
6286;500
6287;505
6288;505
6289;503
6290;493
6291;503
6292;504
6293;504
6294;505
6295;502
6296;505
6297;501
6298;508
6299;504
6300;498
6301;499
6302;499
6303;506
6304;512
6305;504
6306;493
6307;499
6308;506
6309;512
6310;507
6311;501
6312;500
6313;505
6314;508
6315;504
6316;501
6317;496
6318;503
6319;505
6320;510
6321;505
6322;507
6323;499
6324;503
6325;508
6326;506
6327;499
6328;510
6329;488
6330;504
6331;502
6332;504
6333;507
6334;508
6335;508
6336;498
6337;504
6338;497
6339;508
6340;497
6341;499
6342;499
6343;510
6344;504
6345;509
6346;495
6347;497
6348;502
6349;504
6350;507
6351;509
6352;506
6353;508
6354;509
6355;497
6356;503
6357;504
6358;503
6359;511
6360;499
6361;497
6362;501
6363;508
6364;498
6365;503
6366;502
6367;502
6368;503
6369;506
6370;502
6371;504
6372;502
6373;507
6374;510
6375;509
6376;504
6377;496
6378;506
6379;505
6380;501
6381;503
6382;499
6383;503
6384;508
6385;504
6386;491
6387;505
6388;506
6389;501
6390;504
6391;504
6392;505
6393;512
6394;505
6395;507
6396;510
6397;501
6398;503
6399;505
6400;504
6401;498
6402;497
6403;503
6404;512
6405;502
6406;499
6407;499
6408;508
6409;508
6410;494
6411;501
6412;508
6413;509
6414;508
6415;502
6416;492
6417;498
6418;504
6419;508
6420;510
6421;510
6422;497
6423;497
6424;511
6425;504
6426;495
6427;501
6428;502
6429;502
6430;505
6431;502
6432;503
6433;509
6434;507
6435;505
6436;505
6437;499
6438;504
6439;505
6440;503
6441;510
6442;499
6443;510
6444;507
6445;503
6446;503
6447;499
6448;504
6449;506
6450;496
6451;500
6452;502
6453;511
6454;514
6455;504
6456;502
6457;500
6458;510
6459;504
6460;499
6461;502
6462;499
6463;511
6464;504
6465;504
6466;503
6467;501
6468;503
6469;504
6470;509
6471;507
6472;503
6473;507
6474;513
6475;500
6476;495
6477;503
6478;507
6479;507
6480;503
6481;499
6482;497
6483;498
6484;503
6485;504
6486;505
6487;505
6488;510
6489;504
6490;504
6491;498
6492;508
6493;509
6494;507
6495;501
6496;493
6497;502
6498;506
6499;508
6500;502
6501;505
6502;498
6503;505
6504;505
6505;502
6506;511
6507;501
6508;504
6509;511
6510;505
6511;496
6512;491
6513;505
6514;505
6515;505
6516;496
6517;501
6518;502
6519;505
6520;500
6521;507
6522;506
6523;505
6524;509
6525;504
6526;507
6527;497
6528;504
6529;510
6530;508
6531;499
6532;498
6533;505
6534;505
6535;500
6536;502
6537;502
6538;502
6539;508
6540;506
6541;496
6542;499
6543;502
6544;510
6545;503
6546;496
6547;501
6548;495
6549;511
6550;502
6551;497
6552;504
6553;507
6554;513
6555;507
6556;490
6557;503
6558;507
6559;511
6560;504
6561;504
6562;501
6563;491
6564;504
6565;498
6566;496
6567;502
6568;503
6569;510
6570;507
6571;502
6572;501
6573;500
6574;514
6575;511
6576;499
6577;501
6578;503
6579;504
6580;502
6581;495
6582;497
6583;503
6584;514
6585;495
6586;501
6587;502
6588;505
6589;506
6590;497
6591;514
6592;494
6593;508
6594;501
6595;505
6596;499
6597;510
6598;498
6599;516
6600;510
6601;497
6602;496
6603;505
6604;506
6605;507
6606;502
6607;499
6608;503
6609;503
6610;502
6611;508
6612;508
6613;508
6614;504
6615;498
6616;500
6617;505
6618;499
6619;502
6620;504
6621;501
6622;503
6623;508
6624;505
6625;509
6626;500
6627;496
6628;507
6629;504
6630;505
6631;504
6632;497
6633;502
6634;502
6635;496
6636;501
6637;505
6638;504
6639;510
6640;500
6641;496
6642;507
6643;507
6644;508
6645;504
6646;505
6647;504
6648;508
6649;507
6650;505
6651;492
6652;502
6653;504
6654;504
6655;500
6656;502
6657;504
6658;508
6659;508
6660;499
6661;510
6662;498
6663;503
6664;510
6665;504
6666;492
6667;503
6668;499
6669;512
6670;504
6671;496
6672;508
6673;493
6674;504
6675;508
6676;498
6677;504
6678;503
6679;510
6680;499
6681;505
6682;503
6683;505
6684;501
6685;502
6686;502
6687;501
6688;499
6689;510
6690;509
6691;506
6692;507
6693;502
6694;503
6695;504
6696;493
6697;505
6698;504
6699;511
6700;504
6701;496
6702;498
6703;504
6704;494
6705;508
6706;495
6707;503
6708;514
6709;506
6710;502
6711;505
6712;502
6713;505
6714;507
6715;499
6716;504
6717;498
6718;503
6719;508
6720;502
6721;510
6722;507
6723;509
6724;512
6725;503
6726;497
6727;499
6728;503
6729;505
6730;507
6731;508
6732;495
6733;508
6734;498
6735;499
6736;507
6737;509
6738;509
6739;507
6740;505
6741;499
6742;503
6743;504
6744;501
6745;506
6746;498
6747;500
6748;506
6749;504
6750;493
6751;504
6752;504
6753;499
6754;499
6755;505
6756;507
6757;502
6758;509
6759;504
6760;501
6761;501
6762;501
6763;507
6764;504
6765;504
6766;503
6767;499
6768;511
6769;509
6770;500
6771;503
6772;499
6773;504
6774;509
6775;506
6776;504
6777;499
6778;505
6779;508
6780;499
6781;504
6782;495
6783;509
6784;507
6785;502
6786;495
6787;499
6788;512
6789;506
6790;504
6791;504
6792;499
6793;507
6794;501
6795;503
6796;495
6797;503
6798;498
6799;508
6800;501
6801;502
6802;499
6803;508
6804;507
6805;502
6806;502
6807;506
6808;517
6809;505
6810;505
6811;502
6812;502
6813;499
6814;500
6815;500
6816;489
6817;505
6818;498
6819;509
6820;505
6821;494
6822;500
6823;508
6824;505
6825;513
6826;501
6827;504
6828;507
6829;508
6830;503
6831;500
6832;503
6833;501
6834;499
6835;502
6836;509
6837;508
6838;504
6839;506
6840;499
6841;498
6842;503
6843;509
6844;496
6845;505
6846;500
6847;504
6848;510
6849;508
6850;502
6851;498
6852;500
6853;506
6854;505
6855;506
6856;497
6857;509
6858;503
6859;511
6860;500
6861;503
6862;498
6863;507
6864;507
6865;507
6866;497
6867;496
6868;509
6869;507
6870;499
6871;505
6872;507
6873;507
6874;503
6875;502
6876;508
6877;498
6878;497
6879;507
6880;499
6881;499
6882;499
6883;504
6884;504
6885;504
6886;504
6887;501
6888;508
6889;507
6890;508
6891;506
6892;503
6893;502
6894;499
6895;504
6896;501
6897;498
6898;503
6899;509
6900;500
6901;499
6902;504
6903;502
6904;507
6905;505
6906;496
6907;502
6908;505
6909;506
6910;506
6911;497
6912;501
6913;505
6914;500
6915;502
6916;501
6917;499
6918;507
6919;499
6920;500
6921;493
6922;505
6923;502
6924;510
6925;510
6926;504
6927;500
6928;503
6929;509
6930;498
6931;502
6932;509
6933;508
6934;507
6935;509
6936;487
6937;502
6938;498
6939;505
6940;507
6941;497
6942;504
6943;501
6944;510
6945;507
6946;492
6947;505
6948;506
6949;502
6950;504
6951;498
6952;497
6953;501
6954;510
6955;506
6956;504
6957;499
6958;504
6959;505
6960;503
6961;496
6962;493
6963;503
6964;507
6965;500
6966;507
6967;508
6968;503
6969;507
6970;502
6971;491
6972;500
6973;505
6974;507
6975;511
6976;505
6977;508
6978;497
6979;510
6980;503
6981;498
6982;502
6983;510
6984;501
6985;500
6986;505
6987;498
6988;506
6989;505
6990;501
6991;503
6992;501
6993;496
6994;506
6995;508
6996;497
6997;505
6998;503
6999;505
7000;504
7001;500
7002;505
7003;503
7004;504
7005;506
7006;503
7007;501
7008;500
7009;508
7010;505
7011;509
7012;501
7013;499
7014;512
7015;499
7016;505
7017;494
7018;502
7019;506
7020;505
7021;504
7022;501
7023;510
7024;497
7025;501
7026;505
7027;506
7028;509
7029;505
7030;500
7031;502
7032;507
7033;502
7034;503
7035;499
7036;505
7037;497
7038;503
7039;510
7040;507
7041;504
7042;497
7043;508
7044;507
7045;502
7046;505
7047;504
7048;510
7049;507
7050;501
7051;495
7052;506
7053;504
7054;508
7055;509
7056;502
7057;499
7058;507
7059;512
7060;506
7061;507
7062;499
7063;504
7064;505
7065;502
7066;497
7067;498
7068;500
7069;501
7070;504
7071;498
7072;507
7073;510
7074;512
7075;508
7076;508
7077;497
7078;508
7079;509
7080;505
7081;493
7082;500
7083;500
7084;507
7085;499
7086;505
7087;497
7088;505
7089;511
7090;499
7091;501
7092;500
7093;505
7094;505
7095;505
7096;496
7097;503
7098;500
7099;507
7100;505
7101;490
7102;505
7103;499
7104;505
7105;514
7106;503
7107;497
7108;504
7109;512
7110;504
7111;508
7112;498
7113;502
7114;504
7115;501
7116;499
7117;498
7118;500
7119;505
7120;506
7121;507
7122;494
7123;504
7124;508
7125;504
7126;507
7127;500
7128;501
7129;512
7130;504
7131;493
7132;502
7133;496
7134;507
7135;509
7136;500
7137;498
7138;504
7139;511
7140;504
7141;500
7142;504
7143;507
7144;507
7145;508
7146;508
7147;494
7148;502
7149;505
7150;503
7151;500
7152;501
7153;504
7154;506
7155;505
7156;502
7157;501
7158;507
7159;506
7160;510
7161;501
7162;494
7163;504
7164;507
7165;500
7166;499
7167;493
7168;500
7169;510
7170;503
7171;500
7172;500
7173;514
7174;510
7175;499
7176;504
7177;502
7178;506
7179;504
7180;496
7181;503
7182;498
7183;507
7184;502
7185;500
7186;504
7187;500
7188;507
7189;507
7190;502
7191;507
7192;504
7193;498
7194;505
7195;500
7196;505
7197;494
7198;504
7199;502
7200;496
7201;504
7202;502
7203;506
7204;513
7205;506
7206;496
7207;503
7208;505
7209;510
7210;504
7211;506
7212;502
7213;498
7214;500
7215;504
7216;512
7217;500
7218;499
7219;506
7220;505
7221;499
7222;503
7223;502
7224;508
7225;503
7226;503
7227;497
7228;511
7229;510
7230;507
7231;503
7232;501
7233;508
7234;497
7235;496
7236;502
7237;508
7238;501
7239;505
7240;500
7241;499
7242;505
7243;508
7244;499
7245;506
7246;504
7247;499
7248;504
7249;510
7250;507
7251;497
7252;496
7253;503
7254;507
7255;499
7256;496
7257;503
7258;504
7259;503
7260;509
7261;509
7262;505
7263;506
7264;507
7265;499
7266;500
7267;499
7268;504
7269;509
7270;513
7271;499
7272;504
7273;506
7274;513
7275;501
7276;499
7277;501
7278;504
7279;513
7280;504
7281;495
7282;499
7283;506
7284;508
7285;498
7286;499
7287;504
7288;509
7289;504
7290;504
7291;505
7292;504
7293;502
7294;504
7295;502
7296;504
7297;503
7298;497
7299;504
7300;505
7301;502
7302;499
7303;505
7304;507
7305;504
7306;497
7307;505
7308;505
7309;516
7310;508
7311;512
7312;497
7313;498
7314;506
7315;509
7316;507
7317;504
7318;497
7319;502
7320;507
7321;513
7322;508
7323;503
7324;502
7325;502
7326;507
7327;500
7328;512
7329;505
7330;499
7331;502
7332;498
7333;503
7334;500
7335;505
7336;509
7337;506
7338;512
7339;501
7340;499
7341;507
7342;499
7343;505
7344;502
7345;498
7346;508
7347;507
7348;507
7349;505
7350;504
7351;493
7352;499
7353;511
7354;499
7355;512
7356;504
7357;488
7358;501
7359;513
7360;506
7361;496
7362;495
7363;507
7364;509
7365;504
7366;507
7367;498
7368;503
7369;503
7370;507
7371;507
7372;506
7373;503
7374;501
7375;505
7376;504
7377;502
7378;516
7379;499
7380;504
7381;506
7382;503
7383;505
7384;501
7385;497
7386;514
7387;494
7388;502
7389;510
7390;506
7391;499
7392;499
7393;511
7394;505
7395;504
7396;501
7397;497
7398;503
7399;510
7400;499
7401;498
7402;493
7403;505
7404;501
7405;504
7406;504
7407;508
7408;506
7409;506
7410;503
7411;505
7412;502
7413;507
7414;504
7415;502
7416;501
7417;497
7418;502
7419;511
7420;507
7421;512
7422;504
7423;502
7424;505
7425;496
7426;506
7427;502
7428;506
7429;510
7430;494
7431;506
7432;507
7433;503
7434;503
7435;501
7436;506
7437;497
7438;503
7439;508
7440;509
7441;496
7442;499
7443;508
7444;508
7445;497
7446;504
7447;498
7448;503
7449;506
7450;512
7451;499
7452;502
7453;506
7454;510
7455;507
7456;498
7457;499
7458;507
7459;505
7460;504
7461;500
7462;499
7463;503
7464;499
7465;504
7466;500
7467;499
7468;502
7469;505
7470;503
7471;499
7472;509
7473;506
7474;510
7475;498
7476;504
7477;512
7478;504
7479;504
7480;497
7481;499
7482;492
7483;509
7484;502
7485;506
7486;504
7487;491
7488;512
7489;504
7490;505
7491;500
7492;502
7493;507
7494;509
7495;498
7496;503
7497;498
7498;500
7499;509
7500;505
7501;504
7502;500
7503;505
7504;497
7505;506
7506;510
7507;506
7508;504
7509;509
7510;503
7511;501
7512;504
7513;504
7514;510
7515;493
7516;494
7517;495
7518;507
7519;509
7520;502
7521;502
7522;504
7523;500
7524;504
7525;509
7526;507
7527;501
7528;513
7529;504
7530;500
7531;502
7532;490
7533;507
7534;515
7535;499
7536;511
7537;504
7538;505
7539;502
7540;499
7541;511
7542;499
7543;503
7544;506
7545;489
7546;507
7547;508
7548;502
7549;507
7550;502
7551;500
7552;500
7553;507
7554;503
7555;499
7556;501
7557;509
7558;502
7559;503
7560;507
7561;501
7562;496
7563;510
7564;507
7565;499
7566;500
7567;503
7568;503
7569;508
7570;504
7571;499
7572;501
7573;502
7574;508
7575;504
7576;502
7577;500
7578;506
7579;503
7580;508
7581;504
7582;504
7583;505
7584;505
7585;502
7586;502
7587;495
7588;500
7589;507
7590;505
7591;499
7592;504
7593;508
7594;511
7595;497
7596;507
7597;504
7598;504
7599;502
7600;502
7601;504
7602;503
7603;503
7604;504
7605;500
7606;500
7607;502
7608;501
7609;505
7610;507
7611;502
7612;498
7613;508
7614;498
7615;504
7616;500
7617;502
7618;502
7619;500
7620;504
7621;502
7622;503
7623;509
7624;507
7625;503
7626;508
7627;502
7628;503
7629;506
7630;504
7631;504
7632;508
7633;506
7634;499
7635;497
7636;499
7637;504
7638;504
7639;513
7640;492
7641;508
7642;503
7643;504
7644;499
7645;506
7646;508
7647;502
7648;510
7649;500
7650;504
7651;499
7652;495
7653;507
7654;508
7655;511
7656;505
7657;507
7658;504
7659;505
7660;504
7661;505
7662;495
7663;509
7664;499
7665;500
7666;502
7667;498
7668;501
7669;501
7670;513
7671;500
7672;497
7673;508
7674;505
7675;509
7676;498
7677;502
7678;495
7679;505
7680;499
7681;503
7682;499
7683;504
7684;504
7685;504
7686;512
7687;510
7688;508
7689;508
7690;504
7691;495
7692;497
7693;509
7694;507
7695;512
7696;501
7697;499
7698;498
7699;503
7700;501
7701;500
7702;499
7703;506
7704;505
7705;504
7706;500
7707;504
7708;512
7709;505
7710;503
7711;498
7712;497
7713;502
7714;504
7715;502
7716;503
7717;501
7718;505
7719;500
7720;505
7721;509
7722;499
7723;511
7724;500
7725;501
7726;504
7727;498
7728;505
7729;512
7730;500
7731;503
7732;496
7733;506
7734;502
7735;501
7736;500
7737;507
7738;507
7739;505
7740;501
7741;504
7742;502
7743;509
7744;507
7745;502
7746;495
7747;496
7748;505
7749;499
7750;507
7751;500
7752;505
7753;516
7754;498
7755;504
7756;499
7757;504
7758;497
7759;508
7760;503
7761;500
7762;507
7763;507
7764;506
7765;499
7766;505
7767;495
7768;509
7769;512
7770;495
7771;505
7772;502
7773;503
7774;510
7775;503
7776;502
7777;499
7778;504
7779;499
7780;501
7781;506
7782;502
7783;508
7784;508
7785;504
7786;499
7787;496
7788;512
7789;503
7790;499
7791;506
7792;498
7793;507
7794;508
7795;504
7796;502
7797;505
7798;506
7799;500
7800;511
7801;502
7802;501
7803;499
7804;505
7805;503
7806;508
7807;507
7808;507
7809;509
7810;502
7811;502
7812;496
7813;509
7814;508
7815;496
7816;498
7817;503
7818;512
7819;500
7820;505
7821;502
7822;508
7823;500
7824;507
7825;513
7826;505
7827;500
7828;505
7829;508
7830;504
7831;494
7832;500
7833;504
7834;504
7835;502
7836;491
7837;500
7838;501
7839;513
7840;506
7841;496
7842;503
7843;510
7844;499
7845;499
7846;499
7847;492
7848;506
7849;515
7850;505
7851;497
7852;496
7853;509
7854;505
7855;502
7856;508
7857;505
7858;515
7859;514
7860;506
7861;500
7862;496
7863;500
7864;499
7865;500
7866;498
7867;500
7868;494
7869;514
7870;496
7871;504
7872;502
7873;509
7874;492
7875;497
7876;505
7877;508
7878;507
7879;509
7880;500
7881;512
7882;497
7883;507
7884;503
7885;497
7886;496
7887;503
7888;502
7889;507
7890;507
7891;507
7892;498
7893;503
7894;505
7895;509
7896;510
7897;496
7898;509
7899;507
7900;503
7901;501
7902;496
7903;508
7904;507
7905;508
7906;496
7907;504
7908;507
7909;504
7910;509
7911;496
7912;500
7913;498
7914;511
7915;509
7916;501
7917;505
7918;502
7919;499
7920;494
7921;499
7922;504
7923;506
7924;503
7925;507
7926;503
7927;505
7928;510
7929;504
7930;500
7931;501
7932;499
7933;511
7934;504
7935;501
7936;501
7937;498
7938;505
7939;511
7940;505
7941;499
7942;503
7943;510
7944;505
7945;501
7946;507
7947;504
7948;504
7949;504
7950;500
7951;502
7952;505
7953;503
7954;506
7955;505
7956;505
7957;503
7958;500
7959;517
7960;500
7961;500
7962;500
7963;511
7964;503
7965;495
7966;508
7967;508
7968;507
7969;510
7970;503
7971;504
7972;499
7973;501
7974;506
7975;504
7976;494
7977;500
7978;504
7979;508
7980;508
7981;507
7982;502
7983;507
7984;496
7985;503
7986;501
7987;506
7988;508
7989;509
7990;507
7991;506
7992;500
7993;502
7994;508
7995;497
7996;505
7997;499
7998;504
7999;502
8000;500
8001;501
8002;505
8003;499
8004;504
8005;503
8006;503
8007;504
8008;504
8009;502
8010;498
8011;505
8012;504
8013;505
8014;504
8015;501
8016;497
8017;495
8018;506
8019;505
8020;509
8021;507
8022;504
8023;509
8024;503
8025;500
8026;506
8027;502
8028;495
8029;505
8030;500
8031;492
8032;503
8033;502
8034;506
8035;506
8036;502
8037;510
8038;503
8039;501
8040;504
8041;500
8042;512
8043;501
8044;504
8045;501
8046;498
8047;498
8048;502
8049;508
8050;506
8051;495
8052;509
8053;500
8054;507
8055;501
8056;490
8057;505
8058;505
8059;503
8060;498
8061;504
8062;511
8063;504
8064;501
8065;502
8066;499
8067;499
8068;500
8069;512
8070;510
8071;503
8072;504
8073;504
8074;510
8075;504
8076;500
8077;505
8078;504
8079;510
8080;508
8081;495
8082;502
8083;498
8084;505
8085;496
8086;491
8087;505
8088;505
8089;507
8090;502
8091;499
8092;502
8093;504
8094;506
8095;506
8096;492
8097;503
8098;513
8099;501
8100;507
8101;499
8102;497
8103;510
8104;507
8105;499
8106;506
8107;503
8108;513
8109;495
8110;504
8111;505
8112;506
8113;506
8114;505
8115;506
8116;512
8117;498
8118;505
8119;500
8120;501
8121;494
8122;498
8123;509
8124;504
8125;504
8126;505
8127;501
8128;511
8129;507
8130;499
8131;493
8132;499
8133;497
8134;504
8135;507
8136;501
8137;502
8138;503
8139;511
8140;506
8141;495
8142;507
8143;510
8144;505
8145;505
8146;498
8147;502
8148;504
8149;508
8150;505
8151;505
8152;496
8153;503
8154;510
8155;503
8156;497
8157;500
8158;507
8159;505
8160;507
8161;503
8162;503
8163;497
8164;506
8165;504
8166;495
8167;504
8168;508
8169;500
8170;503
8171;504
8172;498
8173;501
8174;505
8175;502
8176;507
8177;504
8178;513
8179;509
8180;503
8181;496
8182;497
8183;502
8184;503
8185;507
8186;508
8187;499
8188;503
8189;504
8190;502
8191;508
8192;497
8193;510
8194;505
8195;498
8196;503
8197;500
8198;507
8199;509
8200;502
8201;504
8202;502
8203;507
8204;503
8205;504
8206;498
8207;499
8208;506
8209;516
8210;507
8211;504
8212;502
8213;508
8214;501
8215;507
8216;506
8217;493
8218;501
8219;505
8220;498
8221;504
8222;495
8223;500
8224;502
8225;510
8226;510
8227;505
8228;506
8229;509
8230;499
8231;501
8232;504
8233;497
8234;511
8235;506
8236;507
8237;500
8238;501
8239;504
8240;502
8241;492
8242;504
8243;507
8244;509
8245;502
8246;501
8247;504
8248;507
8249;507
8250;507
8251;500
8252;498
8253;505
8254;505
8255;506
8256;497
8257;506
8258;509
8259;509
8260;503
8261;497
8262;504
8263;504
8264;503
8265;504
8266;499
8267;502
8268;506
8269;511
8270;498
8271;506
8272;503
8273;508
8274;507
8275;499
8276;502
8277;497
8278;500
8279;507
8280;508
8281;497
8282;501
8283;505
8284;501
8285;500
8286;501
8287;500
8288;508
8289;513
8290;510
8291;492
8292;498
8293;508
8294;511
8295;497
8296;504
8297;502
8298;499
8299;511
8300;499
8301;500
8302;495
8303;501
8304;509
8305;504
8306;506
8307;502
8308;515
8309;509
8310;508
8311;502
8312;500
8313;506
8314;510
8315;504
8316;500
8317;493
8318;507
8319;503
8320;500
8321;503
8322;503
8323;504
8324;504
8325;503
8326;503
8327;507
8328;512
8329;496
8330;499
8331;502
8332;500
8333;506
8334;509
8335;500
8336;502
8337;499
8338;500
8339;511
8340;504
8341;498
8342;501
8343;500
8344;499
8345;512
8346;508
8347;499
8348;507
8349;503
8350;501
8351;500
8352;497
8353;511
8354;510
8355;500
8356;495
8357;502
8358;508
8359;506
8360;499
8361;500
8362;497
8363;510
8364;501
8365;507
8366;502
8367;505
8368;504
8369;505
8370;500
8371;496
8372;502
8373;507
8374;507
8375;494
8376;511
8377;504
8378;515
8379;507
8380;499
8381;500
8382;498
8383;512
8384;505
8385;495
8386;497
8387;503
8388;511
8389;498
8390;501
8391;509
8392;512
8393;507
8394;504
8395;506
8396;504
8397;508
8398;513
8399;499
8400;504
8401;501
8402;500
8403;505
8404;510
8405;501
8406;516
8407;503
8408;504
8409;501
8410;496
8411;508
8412;498
8413;504
8414;502
8415;503
8416;511
8417;501
8418;502
8419;506
8420;504
8421;502
8422;507
8423;502
8424;504
8425;506
8426;503
8427;502
8428;504
8429;509
8430;502
8431;498
8432;500
8433;503
8434;510
8435;503
8436;497
8437;502
8438;508
8439;511
8440;505
8441;500
8442;502
8443;501
8444;511
8445;501
8446;500
8447;499
8448;508
8449;506
8450;506
8451;497
8452;500
8453;507
8454;504
8455;506
8456;505
8457;504
8458;496
8459;495
8460;506
8461;510
8462;500
8463;508
8464;502
8465;502
8466;503
8467;501
8468;508
8469;503
8470;504
8471;493
8472;502
8473;506
8474;507
8475;504
8476;513
8477;502
8478;500
8479;504
8480;504
8481;503
8482;499
8483;508
8484;498
8485;496
8486;502
8487;504
8488;512
8489;503
8490;497
8491;496
8492;501
8493;506
8494;506
8495;504
8496;503
8497;501
8498;508
8499;511
8500;502
8501;506
8502;499
8503;506
8504;504
8505;504
8506;494
8507;499
8508;506
8509;504
8510;504
8511;510
8512;500
8513;503
8514;505
8515;501
8516;498
8517;498
8518;505
8519;508
8520;505
8521;502
8522;506
8523;508
8524;505
8525;503
8526;508
8527;500
8528;506
8529;504
8530;499
8531;502
8532;499
8533;506
8534;508
8535;500
8536;498
8537;504
8538;505
8539;497
8540;504
8541;499
8542;500
8543;511
8544;505
8545;496
8546;508
8547;503
8548;507
8549;510
8550;508
8551;506
8552;503
8553;493
8554;507
8555;506
8556;491
8557;507
8558;499
8559;507
8560;508
8561;500
8562;498
8563;510
8564;508
8565;502
8566;504
8567;500
8568;503
8569;505
8570;503
8571;499
8572;496
8573;506
8574;510
8575;504
8576;497
8577;498
8578;507
8579;509
8580;504
8581;506
8582;502
8583;511
8584;501
8585;501
8586;493
8587;504
8588;504
8589;502
8590;503
8591;496
8592;505
8593;514
8594;508
8595;505
8596;503
8597;507
8598;510
8599;506
8600;494
8601;510
8602;502
8603;501
8604;504
8605;494
8606;498
8607;505
8608;507
8609;514
8610;502
8611;501
8612;498
8613;502
8614;508
8615;505
8616;509
8617;501
8618;506
8619;509
8620;505
8621;503
8622;499
8623;507
8624;506
8625;504
8626;500
8627;502
8628;510
8629;510
8630;504
8631;504
8632;503
8633;508
8634;501
8635;502
8636;496
8637;502
8638;511
8639;509
8640;491
8641;494
8642;495
8643;507
8644;511
8645;503
8646;508
8647;509
8648;504
8649;500
8650;496
8651;503
8652;500
8653;501
8654;506
8655;501
8656;503
8657;507
8658;505
8659;509
8660;504
8661;497
8662;501
8663;499
8664;512
8665;503
8666;496
8667;505
8668;508
8669;506
8670;503
8671;500
8672;495
8673;508
8674;507
8675;504
8676;506
8677;497
8678;500
8679;507
8680;500
8681;499
8682;495
8683;513
8684;510
8685;503
8686;493
8687;495
8688;511
8689;513
8690;495
8691;505
8692;508
8693;503
8694;511
8695;498
8696;507
8697;504
8698;507
8699;505
8700;499
8701;503
8702;498
8703;504
8704;508
8705;503
8706;501
8707;498
8708;513
8709;507
8710;509
8711;498
8712;497
8713;503
8714;502
8715;507
8716;503
8717;503
8718;505
8719;503
8720;501
8721;503
8722;499
8723;501
8724;513
8725;502
8726;506
8727;509
8728;501
8729;508
8730;507
8731;507
8732;508
8733;504
8734;508
8735;505
8736;496
8737;499
8738;504
8739;501
8740;504
8741;505
8742;500
8743;505
8744;504
8745;508
8746;505
8747;508
8748;505
8749;506
8750;506
8751;505
8752;500
8753;509
8754;502
8755;500
8756;507
8757;508
8758;504
8759;504
8760;505
8761;504
8762;502
8763;506
8764;511
8765;499
8766;504
8767;503
8768;511
8769;505
8770;502
8771;497
8772;499
8773;509
8774;510
8775;502
8776;508
8777;499
8778;504
8779;504
8780;500
8781;509
8782;496
8783;511
8784;501
8785;500
8786;497
8787;499
8788;507
8789;499
8790;507
8791;497
8792;503
8793;510
8794;508
8795;503
8796;503
8797;499
8798;506
8799;508
8800;500
8801;498
8802;503
8803;509
8804;496
8805;500
8806;505
8807;506
8808;511
8809;504
8810;507
8811;505
8812;489
8813;505
8814;510
8815;508
8816;498
8817;496
8818;507
8819;503
8820;493
8821;497
8822;501
8823;509
8824;509
8825;510
8826;498
8827;497
8828;512
8829;500
8830;499
8831;503
8832;503
8833;506
8834;505
8835;502
8836;502
8837;504
8838;503
8839;505
8840;509
8841;499
8842;501
8843;513
8844;506
8845;505
8846;504
8847;497
8848;500
8849;500
8850;501
8851;504
8852;496
8853;510
8854;506
8855;511
8856;494
8857;504
8858;502
8859;503
8860;496
8861;506
8862;503
8863;508
8864;501
8865;496
8866;510
8867;498
8868;508
8869;504
8870;506
8871;509
8872;499
8873;505
8874;508
8875;507
8876;500
8877;499
8878;504
8879;508
8880;503
8881;508
8882;502
8883;508
8884;503
8885;498
8886;494
8887;503
8888;507
8889;508
8890;507
8891;507
8892;504
8893;507
8894;507
8895;503
8896;496
8897;501
8898;503
8899;504
8900;502
8901;498
8902;496
8903;505
8904;504
8905;505
8906;492
8907;496
8908;510
8909;509
8910;505
8911;503
8912;500
8913;510
8914;506
8915;499
8916;507
8917;497
8918;505
8919;512
8920;511
8921;496
8922;502
8923;503
8924;502
8925;503
8926;504
8927;501
8928;504
8929;501
8930;503
8931;492
8932;500
8933;505
8934;507
8935;504
8936;505
8937;512
8938;505
8939;507
8940;499
8941;504
8942;499
8943;505
8944;504
8945;506
8946;504
8947;508
8948;502
8949;504
8950;508
8951;502
8952;499
8953;502
8954;499
8955;496
8956;507
8957;511
8958;502
8959;503
8960;502
8961;506
8962;497
8963;503
8964;515
8965;504
8966;499
8967;494
8968;503
8969;503
8970;502
8971;496
8972;499
8973;513
8974;510
8975;507
8976;500
8977;498
8978;498
8979;504
8980;500
8981;507
8982;507
8983;507
8984;508
8985;507
8986;498
8987;503
8988;494
8989;507
8990;510
8991;500
8992;508
8993;505
8994;509
8995;501
8996;501
8997;503
8998;504
8999;510
9000;500
9001;501
9002;497
9003;509
9004;506
9005;497
9006;507
9007;507
9008;497
9009;509
9010;504
9011;505
9012;505
9013;505
9014;504
9015;504
9016;497
9017;493
9018;495
9019;505
9020;501
9021;506
9022;498
9023;506
9024;504
9025;511
9026;496
9027;503
9028;505
9029;513
9030;500
9031;503
9032;503
9033;508
9034;510
9035;505
9036;500
9037;499
9038;506
9039;499
9040;504
9041;497
9042;501
9043;503
9044;502
9045;502
9046;504
9047;500
9048;507
9049;506
9050;499
9051;496
9052;503
9053;507
9054;504
9055;499
9056;503
9057;500
9058;502
9059;512
9060;503
9061;503
9062;506
9063;499
9064;505
9065;512
9066;504
9067;500
9068;501
9069;503
9070;499
9071;493
9072;506
9073;509
9074;507
9075;502
9076;499
9077;503
9078;508
9079;503
9080;502
9081;494
9082;503
9083;509
9084;505
9085;500
9086;500
9087;505
9088;505
9089;504
9090;503
9091;504
9092;503
9093;501
9094;503
9095;508
9096;498
9097;504
9098;506
9099;505
9100;504
9101;502
9102;499
9103;510
9104;498
9105;507
9106;500
9107;504
9108;510
9109;508
9110;504
9111;500
9112;508
9113;504
9114;505
9115;503
9116;496
9117;500
9118;500
9119;507
9120;503
9121;497
9122;498
9123;500
9124;507
9125;510
9126;495
9127;504
9128;500
9129;508
9130;511
9131;497
9132;502
9133;502
9134;506
9135;505
9136;491
9137;505
9138;505
9139;504
9140;504
9141;498
9142;501
9143;507
9144;508
9145;499
9146;496
9147;499
9148;512
9149;501
9150;510
9151;502
9152;497
9153;505
9154;515
9155;496
9156;501
9157;501
9158;503
9159;502
9160;503
9161;507
9162;500
9163;516
9164;506
9165;498
9166;497
9167;504
9168;504
9169;496
9170;500
9171;506
9172;499
9173;504
9174;510
9175;507
9176;510
9177;506
9178;507
9179;504
9180;499
9181;497
9182;496
9183;505
9184;506
9185;510
9186;498
9187;500
9188;503
9189;503
9190;507
9191;499
9192;506
9193;505
9194;507
9195;500
9196;506
9197;500
9198;501
9199;511
9200;503
9201;497
9202;502
9203;505
9204;500
9205;504
9206;496
9207;500
9208;511
9209;505
9210;501
9211;507
9212;501
9213;506
9214;500
9215;504
9216;501
9217;508
9218;506
9219;503
9220;505
9221;499
9222;507
9223;504
9224;503
9225;506
9226;494
9227;504
9228;509
9229;505
9230;505
9231;503
9232;506
9233;500
9234;504
9235;496
9236;507
9237;503
9238;505
9239;502
9240;505
9241;511
9242;502
9243;503
9244;513
9245;504
9246;503
9247;501
9248;501
9249;501
9250;510
9251;496
9252;506
9253;499
9254;501
9255;500
9256;512
9257;502
9258;504
9259;502
9260;509
9261;504
9262;496
9263;510
9264;500
9265;509
9266;496
9267;497
9268;512
9269;506
9270;497
9271;506
9272;510
9273;504
9274;496
9275;507
9276;504
9277;504
9278;507
9279;499
9280;502
9281;496
9282;496
9283;506
9284;504
9285;503
9286;501
9287;496
9288;509
9289;504
9290;500
9291;505
9292;506
9293;504
9294;504
9295;505
9296;499
9297;502
9298;505
9299;502
9300;504
9301;499
9302;495
9303;505
9304;504
9305;506
9306;492
9307;503
9308;512
9309;501
9310;503
9311;509
9312;508
9313;496
9314;503
9315;505
9316;502
9317;505
9318;505
9319;503
9320;508
9321;500
9322;504
9323;513
9324;504
9325;501
9326;499
9327;509
9328;510
9329;499
9330;507
9331;501
9332;495
9333;511
9334;504
9335;503
9336;498
9337;498
9338;507
9339;503
9340;496
9341;503
9342;499
9343;508
9344;499
9345;503
9346;504
9347;503
9348;504
9349;511
9350;506
9351;500
9352;504
9353;508
9354;507
9355;500
9356;495
9357;500
9358;512
9359;504
9360;502
9361;501
9362;501
9363;510
9364;502
9365;501
9366;498
9367;498
9368;502
9369;506
9370;505
9371;504
9372;496
9373;509
9374;509
9375;505
9376;504
9377;512
9378;510
9379;498
9380;494
9381;508
9382;504
9383;513
9384;505
9385;500
9386;496
9387;501
9388;504
9389;504
9390;499
9391;504
9392;506
9393;505
9394;507
9395;504
9396;504
9397;500
9398;503
9399;505
9400;508
9401;500
9402;494
9403;507
9404;506
9405;509
9406;499
9407;501
9408;500
9409;513
9410;502
9411;497
9412;503
9413;505
9414;509
9415;503
9416;503
9417;504
9418;501
9419;505
9420;504
9421;502
9422;501
9423;502
9424;502
9425;499
9426;505
9427;502
9428;513
9429;510
9430;503
9431;496
9432;496
9433;506
9434;505
9435;504
9436;494
9437;500
9438;501
9439;510
9440;502
9441;499
9442;507
9443;507
9444;512
9445;503
9446;499
9447;502
9448;503
9449;508
9450;509
9451;500
9452;506
9453;505
9454;504
9455;501
9456;509
9457;503
9458;502
9459;505
9460;507
9461;501
9462;497
9463;506
9464;501
9465;497
9466;506
9467;500
9468;509
9469;510
9470;502
9471;498
9472;499
9473;516
9474;503
9475;505
9476;500
9477;503
9478;509
9479;503
9480;498
9481;500
9482;506
9483;511
9484;505
9485;506
9486;502
9487;499
9488;505
9489;500
9490;501
9491;511
9492;501
9493;511
9494;504
9495;498
9496;509
9497;504
9498;507
9499;504
9500;499
9501;500
9502;499
9503;507
9504;503
9505;504
9506;508
9507;502
9508;507
9509;508
9510;502
9511;510
9512;506
9513;509
9514;500
9515;504
9516;505
9517;503
9518;502
9519;504
9520;500
9521;498
9522;504
9523;508
9524;503
9525;499
9526;499
9527;500
9528;499
9529;503
9530;500
9531;505
9532;501
9533;511
9534;503
9535;504
9536;504
9537;499
9538;508
9539;503
9540;505
9541;506
9542;504
9543;506
9544;508
9545;493
9546;504
9547;501
9548;505
9549;506
9550;508
9551;500
9552;496
9553;511
9554;505
9555;505
9556;505
9557;498
9558;506
9559;496
9560;508
9561;495
9562;508
9563;511
9564;504
9565;498
9566;504
9567;500
9568;506
9569;511
9570;503
9571;500
9572;503
9573;505
9574;507
9575;499
9576;501
9577;504
9578;503
9579;502
9580;502
9581;502
9582;501
9583;495
9584;501
9585;508
9586;505
9587;497
9588;507
9589;506
9590;505
9591;506
9592;508
9593;505
9594;512
9595;502
9596;505
9597;499
9598;505
9599;503
9600;498
9601;497
9602;498
9603;514
9604;501
9605;496
9606;506
9607;496
9608;504
9609;512
9610;502
9611;509
9612;496
9613;511
9614;496
9615;502
9616;500
9617;498
9618;509
9619;505
9620;499
9621;502
9622;498
9623;513
9624;506
9625;504
9626;496
9627;503
9628;512
9629;496
9630;503
9631;512
9632;507
9633;500
9634;502
9635;503
9636;508
9637;505
9638;504
9639;496
9640;501
9641;497
9642;505
9643;507
9644;509
9645;500
9646;498
9647;496
9648;503
9649;500
9650;505
9651;502
9652;503
9653;509
9654;504
9655;504
9656;499
9657;502
9658;504
9659;503
9660;499
9661;507
9662;505
9663;502
9664;514
9665;500
9666;496
9667;496
9668;504
9669;509
9670;500
9671;512
9672;494
9673;506
9674;503
9675;500
9676;502
9677;500
9678;500
9679;507
9680;504
9681;499
9682;504
9683;503
9684;506
9685;505
9686;495
9687;498
9688;504
9689;502
9690;501
9691;506
9692;502
9693;507
9694;501
9695;510
9696;499
9697;500
9698;510
9699;500
9700;503
9701;498
9702;497
9703;507
9704;504
9705;507
9706;498
9707;510
9708;505
9709;507
9710;498
9711;506
9712;504
9713;509
9714;500
9715;504
9716;499
9717;499
9718;499
9719;503
9720;502
9721;498
9722;501
9723;510
9724;505
9725;498
9726;508
9727;507
9728;505
9729;506
9730;500
9731;494
9732;496
9733;508
9734;504
9735;509
9736;502
9737;506
9738;511
9739;507
9740;496
9741;503
9742;496
9743;501
9744;507
9745;505
9746;508
9747;502
9748;510
9749;512
9750;504
9751;499
9752;499
9753;512
9754;495
9755;504
9756;502
9757;495
9758;507
9759;509
9760;504
9761;503
9762;504
9763;506
9764;505
9765;501
9766;503
9767;501
9768;507
9769;503
9770;504
9771;496
9772;501
9773;502
9774;500
9775;506
9776;495
9777;505
9778;505
9779;512
9780;504
9781;501
9782;503
9783;503
9784;503
9785;507
9786;501
9787;497
9788;503
9789;506
9790;503
9791;503
9792;501
9793;509
9794;508
9795;504
9796;504
9797;496
9798;499
9799;502
9800;506
9801;501
9802;504
9803;498
9804;501
9805;501
9806;500
9807;513
9808;505
9809;512
9810;504
9811;503
9812;504
9813;502
9814;497
9815;500
9816;506
9817;503
9818;497
9819;505
9820;503
9821;504
9822;504
9823;511
9824;504
9825;503
9826;496
9827;501
9828;500
9829;509
9830;505
9831;503
9832;506
9833;504
9834;505
9835;503
9836;502
9837;500
9838;508
9839;505
9840;496
9841;508
9842;500
9843;496
9844;499
9845;504
9846;510
9847;506
9848;502
9849;504
9850;504
9851;501
9852;499
9853;510
9854;506
9855;504
9856;501
9857;504
9858;504
9859;514
9860;496
9861;500
9862;493
9863;508
9864;502
9865;503
9866;499
9867;508
9868;503
9869;505
9870;504
9871;498
9872;498
9873;509
9874;509
9875;508
9876;494
9877;504
9878;505
9879;507
9880;502
9881;492
9882;503
9883;502
9884;508
9885;504
9886;497
9887;506
9888;500
9889;504
9890;512
9891;499
9892;499
9893;501
9894;502
9895;511
9896;500
9897;497
9898;500
9899;508
9900;509
9901;496
9902;504
9903;504
9904;503
9905;512
9906;501
9907;498
9908;496
9909;505
9910;502
9911;501
9912;511
9913;502
9914;503
9915;505
9916;490
9917;505
9918;503
9919;504
9920;508
9921;503
9922;506
9923;505
9924;505
9925;501
9926;504
9927;505
9928;507
9929;511
9930;504
9931;503
9932;501
9933;511
9934;493
9935;505
9936;504
9937;504
9938;508
9939;503
9940;499
9941;504
9942;501
9943;510
9944;502
9945;503
9946;502
9947;502
9948;507
9949;498
9950;496
9951;505
9952;505
9953;510
9954;499
9955;496
9956;508
9957;496
9958;506
9959;500
9960;503
9961;506
9962;509
9963;510
9964;507
9965;504
9966;510
9967;500
9968;502
9969;496
9970;500
9971;500
9972;503
9973;504
9974;508
9975;499
9976;507
9977;506
9978;523
9979;504
9980;499
9981;500
9982;497
9983;504
9984;503
9985;505
9986;497
9987;503
9988;503
9989;501
9990;504
9991;504
9992;501
9993;512
9994;502
9995;500
9996;510
9997;495
9998;509
9999;512
10000;506
10001;508
10002;496
10003;505
10004;499
10005;499
10006;501
10007;499
10008;508
10009;501
10010;502
10011;503
10012;503
10013;503
10014;504
10015;505
10016;495
10017;499
10018;506
10019;507
10020;504
10021;504
10022;499
10023;503
10024;507
10025;508
10026;493
10027;502
10028;512
10029;506
10030;499
10031;505
10032;505
10033;515
10034;507
10035;501
10036;504
10037;497
10038;505
10039;499
10040;500
10041;503
10042;498
10043;510
10044;503
10045;502
10046;503
10047;495
10048;508
10049;509
10050;505
10051;501
10052;503
10053;502
10054;507
10055;512
10056;505
10057;501
10058;499
10059;512
10060;506
10061;500
10062;499
10063;509
10064;494
10065;497
10066;509
10067;498
10068;504
10069;511
10070;511
10071;497
10072;504
10073;505
10074;509
10075;500
10076;504
10077;495
10078;509
10079;509
10080;504
10081;502
10082;497
10083;508
10084;500
10085;506
10086;499
10087;492
10088;508
10089;500
10090;494
10091;502
10092;506
10093;507
10094;499
10095;500
10096;505
10097;505
10098;505
10099;507
10100;499
10101;507
10102;502
10103;500
10104;503
10105;507
10106;505
10107;500
10108;510
10109;501
10110;503
10111;500
10112;504
10113;503
10114;512
10115;500
10116;504
10117;495
10118;507
10119;510
10120;510
10121;495
10122;499
10123;516
10124;512
10125;500
10126;496
10127;486
10128;505
10129;503
10130;505
10131;507
10132;493
10133;505
10134;507
10135;505
10136;502
10137;502
10138;499
10139;504
10140;501
10141;503
10142;498
10143;512
10144;510
10145;502
10146;507
10147;500
10148;510
10149;500
10150;500
10151;503
10152;504
10153;510
10154;504
10155;493
10156;503
10157;501
10158;502
10159;510
10160;510
10161;499
10162;501
10163;507
10164;511
10165;501
10166;497
10167;499
10168;503
10169;510
10170;504
10171;504
10172;499
10173;508
10174;502
10175;507
10176;503
10177;498
10178;515
10179;510
10180;507
10181;498
10182;491
10183;504
10184;502
10185;502
10186;508
10187;503
10188;510
10189;499
10190;504
10191;504
10192;493
10193;507
10194;505
10195;505
10196;506
10197;497
10198;507
10199;495
10200;501
10201;509
10202;500
10203;506
10204;503
10205;502
10206;499
10207;498
10208;512
10209;505
10210;507
10211;504
10212;498
10213;508
10214;505
10215;494
10216;508
10217;505
10218;506
10219;504
10220;494
10221;505
10222;501
10223;511
10224;503
10225;502
10226;504
10227;507
10228;507
10229;500
10230;506
10231;508
10232;502
10233;508
10234;502
10235;502
10236;498
10237;498
10238;507
10239;504
10240;500
10241;504
10242;510
10243;507
10244;504
10245;507
10246;502
10247;502
10248;517
10249;504
10250;503
10251;502
10252;500
10253;504
10254;500
10255;510
10256;496
10257;494
10258;509
10259;506
10260;501
10261;505
10262;499
10263;499
10264;508
10265;512
10266;504
10267;503
10268;511
10269;500
10270;502
10271;503
10272;496
10273;502
10274;501
10275;497
10276;499
10277;512
10278;509
10279;499
10280;511
10281;498
10282;501
10283;508
10284;505
10285;504
10286;502
10287;501
10288;503
10289;500
10290;502
10291;504
10292;503
10293;507
10294;503
10295;505
10296;494
10297;502
10298;509
10299;508
10300;506
10301;505
10302;500
10303;504
10304;502
10305;498
10306;503
10307;499
10308;505
10309;502
10310;500
10311;506
10312;507
10313;507
10314;503
10315;500
10316;503
10317;508
10318;504
10319;508
10320;503
10321;493
10322;503
10323;504
10324;508
10325;504
10326;504
10327;508
10328;502
10329;496
10330;499
10331;509
10332;502
10333;513
10334;508
10335;507
10336;504
10337;497
10338;507
10339;507
10340;502
10341;500
10342;501
10343;508
10344;505
10345;507
10346;495
10347;501
10348;503
10349;503
10350;507
10351;501
10352;499
10353;510
10354;504
10355;499
10356;504
10357;496
10358;510
10359;504
10360;516
10361;499
10362;504
10363;509
10364;501
10365;508
10366;494
10367;490
10368;507
10369;507
10370;500
10371;500
10372;498
10373;506
10374;508
10375;502
10376;502
10377;505
10378;505
10379;512
10380;503
10381;511
10382;499
10383;508
10384;504
10385;500
10386;504
10387;496
10388;498
10389;502
10390;502
10391;500
10392;511
10393;499
10394;509
10395;503
10396;504
10397;500
10398;505
10399;504
10400;504
10401;492
10402;502
10403;503
10404;508
10405;501
10406;500
10407;495
10408;504
10409;508
10410;503
10411;499
10412;504
10413;502
10414;508
10415;511
10416;498
10417;509
10418;504
10419;507
10420;500
10421;497
10422;494
10423;511
10424;504
10425;508
10426;495
10427;497
10428;508
10429;498
10430;502
10431;510
10432;499
10433;511
10434;504
10435;502
10436;512
10437;494
10438;503
10439;505
10440;504
10441;493
10442;504
10443;507
10444;508
10445;510
10446;501
10447;499
10448;513
10449;508
10450;494
10451;502
10452;498
10453;511
10454;504
10455;505
10456;491
10457;500
10458;511
10459;510
10460;501
10461;497
10462;502
10463;506
10464;507
10465;504
10466;500
10467;499
10468;500
10469;504
10470;499
10471;505
10472;508
10473;506
10474;508
10475;505
10476;504
10477;500
10478;516
10479;505
10480;498
10481;498
10482;491
10483;508
10484;503
10485;501
10486;505
10487;498
10488;508
10489;506
10490;500
10491;504
10492;499
10493;506
10494;506
10495;504
10496;499
10497;504
10498;510
10499;502
10500;508
10501;498
10502;495
10503;505
10504;507
10505;506
10506;500
10507;494
10508;502
10509;503
10510;504
10511;505
10512;510
10513;511
10514;501
10515;503
10516;504
10517;497
10518;507
10519;507
10520;500
10521;498
10522;505
10523;508
10524;502
10525;501
10526;498
10527;502
10528;500
10529;509
10530;508
10531;509
10532;502
10533;498
10534;504
10535;499
10536;499
10537;500
10538;505
10539;505
10540;504
10541;500
10542;504
10543;510
10544;508
10545;511
10546;506
10547;497
10548;498
10549;510
10550;504
10551;497
10552;508
10553;499
10554;507
10555;500
10556;499
10557;498
10558;502
10559;503
10560;507
10561;504
10562;504
10563;507
10564;509
10565;502
10566;498
10567;505
10568;510
10569;505
10570;500
10571;500
10572;505
10573;503
10574;501
10575;499
10576;506
10577;496
10578;504
10579;511
10580;502
10581;497
10582;510
10583;504
10584;503
10585;500
10586;502
10587;507
10588;507
10589;505
10590;505
10591;499
10592;507
10593;505
10594;507
10595;500
10596;499
10597;504
10598;516
10599;503
10600;505
10601;500
10602;499
10603;505
10604;505
10605;499
10606;493
10607;504
10608;504
10609;507
10610;497
10611;503
10612;505
10613;515
10614;504
10615;501
10616;506
10617;499
10618;511
10619;500
10620;506
10621;507
10622;502
10623;505
10624;509
10625;504
10626;506
10627;494
10628;504
10629;510
10630;505
10631;504
10632;509
10633;504
10634;503
10635;503
10636;509
10637;498
10638;512
10639;500
10640;501
10641;504
10642;504
10643;504
10644;504
10645;502
10646;503
10647;502
10648;505
10649;494
10650;505
10651;504
10652;504
10653;511
10654;508
10655;505
10656;506
10657;505
10658;504
10659;497
10660;499
10661;504
10662;500
10663;501
10664;503
10665;501
10666;502
10667;500
10668;510
10669;508
10670;504
10671;501
10672;501
10673;505
10674;506
10675;505
10676;500
10677;499
10678;505
10679;508
10680;507
10681;499
10682;501
10683;510
10684;499
10685;498
10686;505
10687;500
10688;505
10689;496
10690;501
10691;495
10692;497
10693;505
10694;510
10695;507
10696;507
10697;511
10698;511
10699;498
10700;496
10701;506
10702;499
10703;506
10704;502
10705;502
10706;499
10707;503
10708;512
10709;497
10710;497
10711;501
10712;508
10713;504
10714;505
10715;502
10716;499
10717;509
10718;507
10719;507
10720;504
10721;504
10722;499
10723;510
10724;505
10725;502
10726;503
10727;500
10728;509
10729;504
10730;500
10731;502
10732;500
10733;500
10734;505
10735;503
10736;499
10737;505
10738;508
10739;503
10740;503
10741;505
10742;501
10743;513
10744;508
10745;507
10746;503
10747;502
10748;514
10749;502
10750;499
10751;506
10752;503
10753;505
10754;503
10755;500
10756;504
10757;499
10758;511
10759;506
10760;500
10761;498
10762;507
10763;509
10764;507
10765;495
10766;497
10767;500
10768;506
10769;503
10770;496
10771;511
10772;503
10773;506
10774;504
10775;501
10776;495
10777;506
10778;507
10779;504
10780;501
10781;511
10782;494
10783;505
10784;511
10785;506
10786;507
10787;502
10788;507
10789;504
10790;497
10791;497
10792;503
10793;509
10794;504
10795;498
10796;504
10797;505
10798;508
10799;502
10800;509
10801;498
10802;504
10803;507
10804;507
10805;503
10806;500
10807;498
10808;508
10809;503
10810;508
10811;501
10812;507
10813;512
10814;502
10815;499
10816;493
10817;498
10818;516
10819;504
10820;496
10821;505
10822;504
10823;506
10824;504
10825;505
10826;500
10827;498
10828;504
10829;506
10830;508
10831;501
10832;502
10833;505
10834;501
10835;499
10836;504
10837;502
10838;509
10839;513
10840;505
10841;500
10842;492
10843;505
10844;501
10845;512
10846;507
10847;496
10848;505
10849;505
10850;500
10851;495
10852;506
10853;498
10854;511
10855;510
10856;497
10857;497
10858;507
10859;510
10860;504
10861;504
10862;497
10863;502
10864;496
10865;499
10866;504
10867;503
10868;504
10869;506
10870;505
10871;502
10872;502
10873;507
10874;508
10875;503
10876;493
10877;501
10878;509
10879;506
10880;496
10881;507
10882;493
10883;508
10884;504
10885;509
10886;496
10887;501
10888;504
10889;501
10890;498
10891;503
10892;500
10893;509
10894;500
10895;492
10896;508
10897;499
10898;506
10899;506
10900;501
10901;503
10902;503
10903;507
10904;505
10905;507
10906;495
10907;499
10908;512
10909;512
10910;508
10911;502
10912;499
10913;501
10914;504
10915;498
10916;497
10917;504
10918;507
10919;504
10920;503
10921;502
10922;492
10923;507
10924;505
10925;501
10926;508
10927;499
10928;507
10929;506
10930;499
10931;504
10932;502
10933;503
10934;508
10935;501
10936;502
10937;496
10938;508
10939;505
10940;510
10941;508
10942;504
10943;507
10944;505
10945;500
10946;503
10947;502
10948;512
10949;504
10950;499
10951;505
10952;497
10953;501
10954;502
10955;501
10956;508
10957;502
10958;501
10959;508
10960;502
10961;505
10962;495
10963;512
10964;507
10965;504
10966;506
10967;502
10968;508
10969;510
10970;496
10971;510
10972;501
10973;508
10974;502
10975;501
10976;505
10977;503
10978;514
10979;503
10980;505
10981;499
10982;505
10983;502
10984;508
10985;504
10986;497
10987;503
10988;505
10989;510
10990;510
10991;503
10992;500
10993;502
10994;496
10995;501
10996;500
10997;498
10998;510
10999;506
11000;507
11001;498
11002;500
11003;509
11004;503
11005;496
11006;501
11007;500
11008;513
11009;506
11010;507
11011;496
11012;497
11013;508
11014;508
11015;504
11016;505
11017;504
11018;503
11019;501
11020;504
11021;500
11022;496
11023;504
11024;502
11025;504
11026;501
11027;498
11028;514
11029;511
11030;497
11031;508
11032;503
11033;503
11034;511
11035;500
11036;505
11037;492
11038;500
11039;497
11040;507
11041;511
11042;496
11043;508
11044;509
11045;501
11046;499
11047;500
11048;505
11049;505
11050;498
11051;504
11052;496
11053;516
11054;504
11055;504
11056;500
11057;506
11058;502
11059;507
11060;508
11061;504
11062;495
11063;502
11064;508
11065;508
11066;496
11067;498
11068;502
11069;502
11070;500
11071;499
11072;503
11073;512
11074;504
11075;498
11076;509
11077;500
11078;502
11079;505
11080;500
11081;502
11082;508
11083;505
11084;502
11085;504
11086;498
11087;490
11088;504
11089;504
11090;504
11091;507
11092;504
11093;508
11094;510
11095;504
11096;502
11097;496
11098;503
11099;499
11100;505
11101;500
11102;502
11103;512
11104;504
11105;502
11106;495
11107;502
11108;513
11109;499
11110;502
11111;507
11112;504
11113;502
11114;508
11115;497
11116;501
11117;503
11118;500
11119;506
11120;506
11121;499
11122;503
11123;507
11124;507
11125;501
11126;500
11127;504
11128;514
11129;506
11130;506
11131;494
11132;495
11133;505
11134;504
11135;503
11136;504
11137;500
11138;504
11139;502
11140;506
11141;504
11142;498
11143;504
11144;510
11145;509
11146;502
11147;507
11148;509
11149;508
11150;499
11151;500
11152;501
11153;511
11154;509
11155;504
11156;505
11157;502
11158;512
11159;500
11160;498
11161;505
11162;502
11163;508
11164;514
11165;497
11166;499
11167;503
11168;504
11169;510
11170;504
11171;496
11172;501
11173;506
11174;508
11175;502
11176;508
11177;506
11178;503
11179;505
11180;503
11181;506
11182;496
11183;503
11184;503
11185;504
11186;504
11187;500
11188;504
11189;505
11190;505
11191;506
11192;506
11193;510
11194;508
11195;498
11196;498
11197;497
11198;504
11199;507
11200;501
11201;502
11202;503
11203;505
11204;507
11205;503
11206;504
11207;504
11208;504
11209;504
11210;507
11211;496
11212;507
11213;504
11214;504
11215;501
11216;496
11217;502
11218;503
11219;505
11220;501
11221;500
11222;498
11223;505
11224;507
11225;505
11226;500
11227;499
11228;505
11229;508
11230;504
11231;510
11232;503
11233;506
11234;506
11235;500
11236;503
11237;500
11238;504
11239;505
11240;499
11241;503
11242;504
11243;507
11244;502
11245;494
11246;508
11247;501
11248;511
11249;504
11250;504
11251;508
11252;499
11253;508
11254;502
11255;503
11256;505
11257;495
11258;510
11259;505
11260;499
11261;500
11262;496
11263;496
11264;505
11265;506
11266;504
11267;502
11268;503
11269;506
11270;499
11271;498
11272;503
11273;515
11274;507
11275;500
11276;506
11277;496
11278;505
11279;497
11280;503
11281;498
11282;504
11283;508
11284;499
11285;504
11286;509
11287;505
11288;506
11289;500
11290;503
11291;498
11292;500
11293;503
11294;500
11295;504
11296;513
11297;507
11298;512
11299;502
11300;497
11301;505
11302;508
11303;498
11304;497
11305;499
11306;508
11307;498
11308;500
11309;508
11310;504
11311;506
11312;504
11313;513
11314;506
11315;505
11316;510
11317;502
11318;507
11319;504
11320;497
11321;505
11322;495
11323;508
11324;504
11325;503
11326;507
11327;508
11328;512
11329;496
11330;503
11331;500
11332;497
11333;509
11334;499
11335;501
11336;511
11337;507
11338;501
11339;501
11340;505
11341;504
11342;504
11343;499
11344;504
11345;498
11346;500
11347;506
11348;505
11349;510
11350;499
11351;501
11352;500
11353;504
11354;504
11355;511
11356;509
11357;506
11358;510
11359;496
11360;501
11361;501
11362;508
11363;508
11364;505
11365;496
11366;510
11367;499
11368;505
11369;504
11370;505
11371;501
11372;494
11373;510
11374;504
11375;501
11376;503
11377;504
11378;494
11379;512
11380;507
11381;503
11382;496
11383;508
11384;502
11385;501
11386;499
11387;504
11388;505
11389;497
11390;498
11391;500
11392;500
11393;508
11394;504
11395;505
11396;512
11397;501
11398;511
11399;505
11400;505
11401;505
11402;498
11403;502
11404;505
11405;496
11406;499
11407;505
11408;508
11409;503
11410;506
11411;502
11412;499
11413;508
11414;504
11415;499
11416;512
11417;507
11418;505
11419;499
11420;495
11421;504
11422;499
11423;503
11424;513
11425;505
11426;499
11427;504
11428;507
11429;502
11430;510
11431;508
11432;502
11433;502
11434;509
11435;504
11436;509
11437;502
11438;494
11439;499
11440;498
11441;503
11442;499
11443;505
11444;510
11445;502
11446;507
11447;496
11448;509
11449;502
11450;498
11451;501
11452;500
11453;509
11454;504
11455;498
11456;505
11457;499
11458;512
11459;510
11460;492
11461;504
11462;502
11463;509
11464;510
11465;506
11466;499
11467;497
11468;504
11469;510
11470;503
11471;510
11472;498
11473;505
11474;501
11475;503
11476;507
11477;501
11478;505
11479;508
11480;504
11481;499
11482;507
11483;506
11484;496
11485;496
11486;499
11487;507
11488;506
11489;507
11490;512
11491;502
11492;502
11493;507
11494;502
11495;504
11496;497
11497;500
11498;508
11499;504
11500;509
11501;505
11502;502
11503;508
11504;512
11505;497
11506;502
11507;497
11508;497
11509;510
11510;498
11511;504
11512;504
11513;510
11514;508
11515;495
11516;508
11517;498
11518;510
11519;504
11520;504
11521;505
11522;495
11523;508
11524;505
11525;509
11526;496
11527;496
11528;507
11529;505
11530;505
11531;510
11532;505
11533;512
11534;503
11535;500
11536;508
11537;499
11538;507
11539;502
11540;505
11541;502
11542;499
11543;507
11544;508
11545;501
11546;494
11547;505
11548;506
11549;497
11550;503
11551;506
11552;494
11553;511
11554;508
11555;507
11556;501
11557;502
11558;508
11559;507
11560;504
11561;499
11562;504
11563;510
11564;502
11565;501
11566;499
11567;503
11568;506
11569;502
11570;498
11571;511
11572;500
11573;501
11574;504
11575;508
11576;499
11577;499
11578;511
11579;499
11580;500
11581;507
11582;506
11583;504
11584;499
11585;502
11586;503
11587;499
11588;503
11589;507
11590;503
11591;504
11592;504
11593;514
11594;507
11595;502
11596;503
11597;500
11598;510
11599;505
11600;505
11601;499
11602;497
11603;509
11604;504
11605;508
11606;499
11607;502
11608;511
11609;504
11610;499
11611;500
11612;503
11613;510
11614;509
11615;499
11616;505
11617;498
11618;502
11619;504
11620;500
11621;504
11622;495
11623;505
11624;508
11625;508
11626;497
11627;501
11628;507
11629;507
11630;501
11631;510
11632;508
11633;512
11634;499
11635;506
11636;503
11637;496
11638;502
11639;502
11640;503
11641;503
11642;499
11643;509
11644;510
11645;500
11646;507
11647;503
11648;512
11649;501
11650;498
11651;503
11652;494
11653;510
11654;507
11655;498
11656;492
11657;499
11658;511
11659;505
11660;500
11661;503
11662;504
11663;498
11664;505
11665;510
11666;498
11667;508
11668;500
11669;502
11670;503
11671;498
11672;498
11673;502
11674;512
11675;505
11676;506
11677;496
11678;507
11679;508
11680;504
11681;505
11682;507
11683;506
11684;495
11685;499
11686;508
11687;496
11688;505
11689;504
11690;502
11691;507
11692;500
11693;502
11694;501
11695;497
11696;501
11697;507
11698;506
11699;503
11700;498
11701;509
11702;504
11703;499
11704;503
11705;503
11706;505
11707;504
11708;515
11709;500
11710;506
11711;503
11712;494
11713;511
11714;500
11715;502
11716;505
11717;503
11718;514
11719;503
11720;502
11721;500
11722;499
11723;505
11724;505
11725;501
11726;504
11727;508
11728;504
11729;508
11730;507
11731;510
11732;497
11733;512
11734;501
11735;499
11736;503
11737;504
11738;510
11739;509
11740;502
11741;494
11742;495
11743;507
11744;509
11745;492
11746;506
11747;500
11748;510
11749;505
11750;504
11751;500
11752;505
11753;507
11754;505
11755;496
11756;490
11757;493
11758;509
11759;509
11760;498
11761;503
11762;500
11763;512
11764;510
11765;504
11766;502
11767;497
11768;506
11769;507
11770;504
11771;502
11772;500
11773;507
11774;508
11775;494
11776;506
11777;501
11778;506
11779;510
11780;505
11781;497
11782;500
11783;506
11784;508
11785;510
11786;494
11787;501
11788;511
11789;504
11790;494
11791;502
11792;507
11793;499
11794;508
11795;508
11796;502
11797;502
11798;508
11799;510
11800;498
11801;505
11802;496
11803;508
11804;512
11805;505
11806;498
11807;496
11808;504
11809;499
11810;513
11811;503
11812;505
11813;506
11814;508
11815;496
11816;511
11817;500
11818;507
11819;505
11820;501
11821;503
11822;500
11823;505
11824;505
11825;500
11826;501
11827;505
11828;510
11829;508
11830;501
11831;505
11832;497
11833;507
11834;496
11835;497
11836;502
11837;505
11838;507
11839;506
11840;501
11841;502
11842;499
11843;508
11844;506
11845;507
11846;497
11847;500
11848;503
11849;514
11850;506
11851;504
11852;498
11853;503
11854;504
11855;499
11856;497
11857;502
11858;514
11859;498
11860;507
11861;507
11862;496
11863;502
11864;505
11865;506
11866;497
11867;504
11868;512
11869;510
11870;503
11871;506
11872;503
11873;505
11874;508
11875;499
11876;504
11877;497
11878;504
11879;508
11880;503
11881;497
11882;506
11883;510
11884;499
11885;501
11886;504
11887;503
11888;507
11889;499
11890;505
11891;507
11892;508
11893;508
11894;499
11895;496
11896;506
11897;510
11898;502
11899;504
11900;499
11901;508
11902;503
11903;504
11904;506
11905;500
11906;504
11907;496
11908;504
11909;503
11910;502
11911;513
11912;503
11913;499
11914;498
11915;504
11916;502
