# OpenSignals Text File Format. Version 1
# {"98:D3:61:FD:78:31": {"position": 0, "device": "bitalino_rev", "device name": "98:D3:61:FD:78:31", "device connection": "BTH98:D3:61:FD:78:31", "sampling rate": 1000, "resolution": [4, 1, 1, 1, 1, 10, 10, 10, 10, 6, 6], "firmware version": 1282, "comments": "", "keywords": "", "mode": 0, "sync interval": 2, "date": "2024-4-12", "time": "10:36:32.647", "channels": [1, 2, 3, 4, 5, 6], "sensor": ["RAW", "RAW", "RAW", "RAW", "RAW", "RAW"], "label": ["A1", "A2", "A3", "A4", "A5", "A6"], "column": ["nSeq", "I1", "I2", "O1", "O2", "A1", "A2", "A3", "A4", "A5", "A6"], "special": [{}, {}, {}, {}, {}, {}], "digital IO": [0, 0, 1, 1], "convertedValues": 0}}
# EndOfHeader
0	0	0	0	0	513	508	0	0	38	0	
1	0	0	0	0	508	507	0	0	38	0	
2	0	0	0	0	510	507	0	0	38	0	
3	0	0	0	0	507	505	0	0	38	0	
4	0	0	0	0	503	507	0	0	38	0	
5	0	0	0	0	504	508	0	0	38	0	
6	0	0	0	0	505	508	0	0	38	0	
7	0	0	0	0	509	508	0	0	39	0	
8	0	0	0	0	508	507	0	0	38	0	
9	0	0	0	0	510	506	0	0	38	0	
10	0	0	0	0	510	507	0	0	38	0	
11	0	0	0	0	513	508	0	0	38	0	
12	0	0	0	0	515	508	0	0	38	0	
13	0	0	0	0	509	507	0	0	38	0	
14	0	0	0	0	507	509	0	0	38	0	
15	0	0	0	0	507	507	0	0	39	0	
0	0	0	0	0	511	507	0	0	38	0	
1	0	0	0	0	511	507	0	0	38	0	
2	0	0	0	0	508	507	0	0	38	0	
3	0	0	0	0	511	507	0	0	38	0	
4	0	0	0	0	515	507	0	0	38	0	
5	0	0	0	0	518	507	0	0	38	0	
6	0	0	0	0	515	507	0	0	38	0	
7	0	0	0	0	513	508	0	0	39	0	
8	0	0	0	0	512	508	0	0	38	0	
9	0	0	0	0	503	508	0	0	38	0	
10	0	0	0	0	499	508	0	0	38	0	
11	0	0	0	0	504	508	0	0	38	0	
12	0	0	0	0	504	509	0	0	38	0	
13	0	0	0	0	509	509	0	0	38	0	
14	0	0	0	0	508	511	0	0	38	0	
15	0	0	0	0	504	510	0	0	39	0	
0	0	0	0	0	505	510	0	0	38	0	
1	0	0	0	0	508	509	0	0	38	0	
2	0	0	0	0	509	509	0	0	38	0	
3	0	0	0	0	511	508	0	0	38	0	
4	0	0	0	0	511	509	0	0	38	0	
5	0	0	0	0	512	507	0	0	38	0	
6	0	0	0	0	507	509	0	0	38	0	
7	0	0	0	0	511	510	0	0	39	0	
8	0	0	0	0	506	508	0	0	38	0	
9	0	0	0	0	502	510	0	0	38	0	
10	0	0	0	0	513	509	0	0	38	0	
11	0	0	0	0	514	511	0	0	38	0	
12	0	0	0	0	515	511	0	0	38	0	
13	0	0	0	0	507	510	0	376	38	0	
14	0	0	0	0	500	510	0	638	38	0	
15	0	0	0	0	506	511	0	908	39	0	
0	0	0	0	0	511	511	0	1018	38	0	
1	0	0	0	0	510	510	0	1018	38	0	
2	0	0	0	0	509	509	0	1018	38	0	
3	0	0	0	0	513	508	0	1018	38	0	
4	0	0	0	0	511	507	0	1018	38	0	
5	0	0	0	0	500	508	0	1018	38	0	
6	0	0	0	0	507	508	0	1018	38	0	
7	0	0	0	0	512	508	0	1018	39	0	
8	0	0	0	0	510	508	0	1018	38	0	
9	0	0	0	0	511	508	0	1018	38	0	
10	0	0	0	0	508	509	0	1018	38	0	
11	0	0	0	0	507	509	0	1017	38	0	
12	0	0	0	0	512	507	0	697	38	0	
13	0	0	0	0	509	505	0	570	38	0	
14	0	0	0	0	505	506	0	467	38	0	
15	0	0	0	0	503	507	0	325	39	0	
0	0	0	0	0	510	504	0	309	38	0	
1	0	0	0	0	513	504	0	320	38	0	
2	0	0	0	0	509	505	0	332	38	0	
3	0	0	0	0	513	506	0	414	38	0	
4	0	0	0	0	516	506	0	608	38	0	
5	0	0	0	0	513	508	0	747	38	0	
6	0	0	0	0	502	507	0	880	38	0	
7	0	0	0	0	502	507	0	1018	39	0	
8	0	0	0	0	506	508	0	1018	38	0	
9	0	0	0	0	510	507	0	1018	38	0	
10	0	0	0	0	512	507	0	1018	38	0	
11	0	0	0	0	513	509	0	1018	38	0	
12	0	0	0	0	508	510	0	1018	38	0	
13	0	0	0	0	512	510	0	1018	38	0	
14	0	0	0	0	517	508	0	1018	38	0	
15	0	0	0	0	521	508	0	1018	39	0	
0	0	0	0	0	511	508	0	1018	38	0	
1	0	0	0	0	503	506	0	1018	38	0	
2	0	0	0	0	506	505	0	1018	38	0	
3	0	0	0	0	507	507	0	1018	38	0	
4	0	0	0	0	504	508	0	1018	38	0	
5	0	0	0	0	507	509	0	1018	38	0	
6	0	0	0	0	502	510	0	1018	38	0	
7	0	0	0	0	502	509	0	1018	39	0	
8	0	0	0	0	508	507	0	1018	38	0	
9	0	0	0	0	511	507	0	1018	38	0	
10	0	0	0	0	512	505	0	1018	38	0	
11	0	0	0	0	509	505	0	1018	38	0	
12	0	0	0	0	509	506	0	895	38	0	
13	0	0	0	0	507	506	0	723	38	0	
14	0	0	0	0	511	508	0	566	38	0	
15	0	0	0	0	510	508	0	497	39	0	
0	0	0	0	0	509	508	0	508	38	0	
1	0	0	0	0	513	509	0	593	38	0	
2	0	0	0	0	518	509	0	584	38	0	
3	0	0	0	0	516	510	0	626	38	0	
4	0	0	0	0	518	509	0	792	38	0	
5	0	0	0	0	509	507	0	849	38	0	
6	0	0	0	0	505	505	0	841	38	0	
7	0	0	0	0	504	505	0	851	39	0	
8	0	0	0	0	502	506	0	725	38	0	
9	0	0	0	0	499	505	0	665	38	0	
10	0	0	0	0	500	505	0	608	38	0	
11	0	0	0	0	507	507	0	571	38	0	
12	0	0	0	0	508	508	0	487	38	0	
13	0	0	0	0	513	508	0	352	38	0	
14	0	0	0	0	512	506	0	211	38	0	
15	0	0	0	0	511	507	0	0	39	0	
0	0	0	0	0	510	508	0	0	38	0	
1	0	0	0	0	510	510	0	0	38	0	
2	0	0	0	0	507	510	0	0	38	0	
3	0	0	0	0	512	508	0	114	38	0	
4	0	0	0	0	512	508	0	329	38	0	
5	0	0	0	0	517	508	0	549	38	0	
6	0	0	0	0	514	510	0	737	38	0	
7	0	0	0	0	513	510	0	943	39	0	
8	0	0	0	0	509	510	0	1018	38	0	
9	0	0	0	0	499	510	0	999	38	0	
10	0	0	0	0	497	511	0	999	38	0	
11	0	0	0	0	502	513	0	1018	38	0	
12	0	0	0	0	513	512	0	1017	38	0	
13	0	0	0	0	511	510	0	1017	38	0	
14	0	0	0	0	508	508	0	862	38	0	
15	0	0	0	0	511	506	0	718	39	0	
0	0	0	0	0	513	505	0	477	38	0	
1	0	0	0	0	510	504	0	209	38	0	
2	0	0	0	0	510	506	0	0	38	0	
3	0	0	0	0	510	508	0	0	38	0	
4	0	0	0	0	504	508	0	0	38	0	
5	0	0	0	0	506	506	0	0	38	0	
6	0	0	0	0	507	506	0	0	38	0	
7	0	0	0	0	507	505	0	0	39	0	
8	0	0	0	0	513	505	0	0	38	0	
9	0	0	0	0	508	506	0	0	38	0	
10	0	0	0	0	504	505	0	0	38	0	
11	0	0	0	0	514	506	0	0	38	0	
12	0	0	0	0	513	506	0	0	38	0	
13	0	0	0	0	514	507	0	0	38	0	
14	0	0	0	0	518	508	0	0	38	0	
15	0	0	0	0	513	508	0	0	39	0	
0	0	0	0	0	508	508	0	0	38	0	
1	0	0	0	0	502	508	0	0	38	0	
2	0	0	0	0	504	507	0	0	38	0	
3	0	0	0	0	510	507	0	0	38	0	
4	0	0	0	0	506	507	0	0	38	0	
5	0	0	0	0	508	508	0	0	38	0	
6	0	0	0	0	508	507	0	0	38	0	
7	0	0	0	0	508	507	0	0	39	0	
8	0	0	0	0	508	508	0	0	38	0	
9	0	0	0	0	506	508	0	0	38	0	
10	0	0	0	0	502	508	0	0	38	0	
11	0	0	0	0	511	508	0	0	38	0	
12	0	0	0	0	513	508	0	0	38	0	
13	0	0	0	0	511	508	0	0	38	0	
14	0	0	0	0	501	508	0	0	38	0	
15	0	0	0	0	507	509	0	0	39	0	
0	0	0	0	0	507	507	0	0	38	0	
1	0	0	0	0	515	508	0	0	38	0	
2	0	0	0	0	521	507	0	0	38	0	
3	0	0	0	0	511	507	0	0	38	0	
4	0	0	0	0	513	509	0	0	38	0	
5	0	0	0	0	507	508	0	0	38	0	
6	0	0	0	0	508	508	0	0	38	0	
7	0	0	0	0	508	509	0	0	39	0	
8	0	0	0	0	501	510	0	0	38	0	
9	0	0	0	0	501	509	0	0	38	0	
10	0	0	0	0	507	509	0	0	38	0	
11	0	0	0	0	507	509	0	0	38	0	
12	0	0	0	0	511	509	0	0	38	0	
13	0	0	0	0	513	508	0	0	38	0	
14	0	0	0	0	512	508	0	0	38	0	
15	0	0	0	0	508	508	0	0	39	0	
0	0	0	0	0	509	508	0	0	38	0	
1	0	0	0	0	511	506	0	0	38	0	
2	0	0	0	0	512	507	0	0	38	0	
3	0	0	0	0	508	508	0	0	38	0	
4	0	0	0	0	504	508	0	0	38	0	
5	0	0	0	0	508	508	0	0	38	0	
6	0	0	0	0	515	508	0	0	38	0	
7	0	0	0	0	515	507	0	0	39	0	
8	0	0	0	0	515	508	0	0	38	0	
9	0	0	0	0	519	508	0	0	38	0	
10	0	0	0	0	511	510	0	0	38	0	
11	0	0	0	0	510	509	0	0	38	0	
12	0	0	0	0	503	510	0	0	38	0	
13	0	0	0	0	494	510	0	0	38	0	
14	0	0	0	0	495	508	0	0	38	0	
15	0	0	0	0	503	508	0	0	39	0	
0	0	0	0	0	503	509	0	0	38	0	
1	0	0	0	0	505	509	0	466	38	0	
2	0	0	0	0	511	510	0	975	38	0	
3	0	0	0	0	515	509	0	1018	38	0	
4	0	0	0	0	514	510	0	1018	38	0	
5	0	0	0	0	515	510	0	1018	38	0	
6	0	0	0	0	512	510	0	1018	38	0	
7	0	0	0	0	512	510	0	1018	39	0	
8	0	0	0	0	508	511	0	1018	38	0	
9	0	0	0	0	509	512	0	1018	38	0	
10	0	0	0	0	511	511	0	1018	38	0	
11	0	0	0	0	511	512	0	1018	38	0	
12	0	0	0	0	507	511	0	1018	38	0	
13	0	0	0	0	506	511	0	1018	38	0	
14	0	0	0	0	507	511	0	1018	38	0	
15	0	0	0	0	511	510	0	1018	39	0	
0	0	0	0	0	510	508	0	1018	38	0	
1	0	0	0	0	512	508	0	1018	38	0	
2	0	0	0	0	511	507	0	1018	38	0	
3	0	0	0	0	509	507	0	1018	38	0	
4	0	0	0	0	509	508	0	1018	38	0	
5	0	0	0	0	509	510	0	1018	38	0	
6	0	0	0	0	509	510	0	1018	38	0	
7	0	0	0	0	507	510	0	1018	39	0	
8	0	0	0	0	508	510	0	1018	38	0	
9	0	0	0	0	512	512	0	1018	38	0	
10	0	0	0	0	507	510	0	1018	38	0	
11	0	0	0	0	510	510	0	1018	38	0	
12	0	0	0	0	509	510	0	1018	38	0	
13	0	0	0	0	508	510	0	1018	38	0	
14	0	0	0	0	510	510	0	1018	38	0	
15	0	0	0	0	511	510	0	1018	39	0	
0	0	0	0	0	512	510	0	1018	38	0	
1	0	0	0	0	507	508	0	1018	38	0	
2	0	0	0	0	509	508	0	1018	38	0	
3	0	0	0	0	512	507	0	1018	38	0	
4	0	0	0	0	512	507	0	1018	38	0	
5	0	0	0	0	508	508	0	1018	38	0	
6	0	0	0	0	504	508	0	1018	38	0	
7	0	0	0	0	500	508	0	1018	39	0	
8	0	0	0	0	504	508	0	1018	38	0	
9	0	0	0	0	507	508	0	1018	38	0	
10	0	0	0	0	508	507	0	1018	38	0	
11	0	0	0	0	512	507	0	1018	38	0	
12	0	0	0	0	512	506	0	1018	38	0	
13	0	0	0	0	515	507	0	1017	38	0	
14	0	0	0	0	515	507	0	1018	38	0	
15	0	0	0	0	518	507	0	1018	39	0	
0	0	0	0	0	513	506	0	1018	38	0	
1	0	0	0	0	504	506	0	1018	38	0	
2	0	0	0	0	511	506	0	1018	38	0	
3	0	0	0	0	504	508	0	1018	38	0	
4	0	0	0	0	507	506	0	1018	38	0	
5	0	0	0	0	511	507	0	1018	38	0	
6	0	0	0	0	510	505	0	1018	38	0	
7	0	0	0	0	511	504	0	1018	39	0	
8	0	0	0	0	505	505	0	1018	38	0	
9	0	0	0	0	510	507	0	1018	38	0	
10	0	0	0	0	504	506	0	1018	38	0	
11	0	0	0	0	506	508	0	1018	38	0	
12	0	0	0	0	505	508	0	1018	38	0	
13	0	0	0	0	508	508	0	1018	38	0	
14	0	0	0	0	513	508	0	1018	38	0	
15	0	0	0	0	510	506	0	1018	39	0	
0	0	0	0	0	513	504	0	1018	38	0	
1	0	0	0	0	513	505	0	1018	38	0	
2	0	0	0	0	507	505	0	1018	38	0	
3	0	0	0	0	506	506	0	1018	38	0	
4	0	0	0	0	506	506	0	1018	38	0	
5	0	0	0	0	506	507	0	1018	38	0	
6	0	0	0	0	508	507	0	1018	38	0	
7	0	0	0	0	511	511	0	1018	39	0	
8	0	0	0	0	514	513	0	1018	38	0	
9	0	0	0	0	514	511	0	1018	38	0	
10	0	0	0	0	512	511	0	1018	38	0	
11	0	0	0	0	506	511	0	1018	38	0	
12	0	0	0	0	509	510	0	1018	38	0	
13	0	0	0	0	504	510	0	1018	38	0	
14	0	0	0	0	508	509	0	1018	38	0	
15	0	0	0	0	511	510	0	1018	39	0	
0	0	0	0	0	504	510	0	1018	38	0	
1	0	0	0	0	511	509	0	1018	38	0	
2	0	0	0	0	513	509	0	1018	38	0	
3	0	0	0	0	512	508	0	1018	38	0	
4	0	0	0	0	511	508	0	1018	38	0	
5	0	0	0	0	510	508	0	1018	38	0	
6	0	0	0	0	509	506	0	1018	38	0	
7	0	0	0	0	512	508	0	1017	39	0	
8	0	0	0	0	510	505	0	1018	38	0	
9	0	0	0	0	516	507	0	1018	38	0	
10	0	0	0	0	518	507	0	859	38	0	
11	0	0	0	0	508	505	0	596	38	0	
12	0	0	0	0	508	508	0	395	38	0	
13	0	0	0	0	505	506	0	264	38	0	
14	0	0	0	0	502	506	0	167	38	0	
15	0	0	0	0	505	507	0	190	39	0	
0	0	0	0	0	503	507	0	321	38	0	
1	0	0	0	0	509	507	0	687	38	0	
2	0	0	0	0	507	507	0	938	38	0	
3	0	0	0	0	509	507	0	1017	38	0	
4	0	0	0	0	511	508	0	1017	38	0	
5	0	0	0	0	512	507	0	1018	38	0	
6	0	0	0	0	512	506	0	1017	38	0	
7	0	0	0	0	510	505	0	1018	39	0	
8	0	0	0	0	513	504	0	1018	38	0	
9	0	0	0	0	510	506	0	1018	38	0	
10	0	0	0	0	506	506	0	1017	38	0	
11	0	0	0	0	507	507	0	623	38	0	
12	0	0	0	0	507	509	0	249	38	0	
13	0	0	0	0	509	508	0	0	38	0	
14	0	0	0	0	508	509	0	0	38	0	
15	0	0	0	0	513	507	0	0	39	0	
0	0	0	0	0	513	505	0	0	38	0	
1	0	0	0	0	507	504	0	0	38	0	
2	0	0	0	0	504	504	0	0	38	0	
3	0	0	0	0	506	507	0	0	38	0	
4	0	0	0	0	508	509	0	0	38	0	
5	0	0	0	0	506	511	0	0	38	0	
6	0	0	0	0	509	511	0	0	38	0	
7	0	0	0	0	513	509	0	0	39	0	
8	0	0	0	0	513	509	0	0	38	0	
9	0	0	0	0	516	509	0	0	38	0	
10	0	0	0	0	503	509	0	0	38	0	
11	0	0	0	0	502	508	0	0	38	0	
12	0	0	0	0	509	507	0	0	38	0	
13	0	0	0	0	510	507	0	0	38	0	
14	0	0	0	0	511	508	0	0	38	0	
15	0	0	0	0	513	508	0	0	39	0	
0	0	0	0	0	511	508	0	0	38	0	
1	0	0	0	0	511	507	0	0	38	0	
2	0	0	0	0	508	508	0	0	38	0	
3	0	0	0	0	503	507	0	0	38	0	
4	0	0	0	0	504	506	0	0	38	0	
5	0	0	0	0	508	507	0	0	38	0	
6	0	0	0	0	511	507	0	0	38	0	
7	0	0	0	0	508	509	0	0	39	0	
8	0	0	0	0	505	510	0	0	38	0	
9	0	0	0	0	509	509	0	0	38	0	
10	0	0	0	0	511	506	0	0	38	0	
11	0	0	0	0	513	506	0	0	38	0	
12	0	0	0	0	518	505	0	0	38	0	
13	0	0	0	0	512	505	0	0	38	0	
14	0	0	0	0	511	506	0	0	38	0	
15	0	0	0	0	511	505	0	0	39	0	
0	0	0	0	0	507	504	0	0	38	0	
1	0	0	0	0	503	506	0	0	38	0	
2	0	0	0	0	503	507	0	0	38	0	
3	0	0	0	0	501	505	0	0	38	0	
4	0	0	0	0	506	506	0	0	38	0	
5	0	0	0	0	511	507	0	0	38	0	
6	0	0	0	0	516	508	0	0	38	0	
7	0	0	0	0	511	509	0	0	39	0	
8	0	0	0	0	509	510	0	0	38	0	
9	0	0	0	0	507	509	0	0	38	0	
10	0	0	0	0	506	508	0	0	38	0	
11	0	0	0	0	507	506	0	0	38	0	
12	0	0	0	0	505	505	0	0	38	0	
13	0	0	0	0	512	506	0	0	38	0	
14	0	0	0	0	516	503	0	0	38	0	
15	0	0	0	0	517	503	0	0	39	0	
0	0	0	0	0	512	505	0	0	38	0	
1	0	0	0	0	503	506	0	0	38	0	
2	0	0	0	0	499	508	0	0	38	0	
3	0	0	0	0	504	506	0	0	38	0	
4	0	0	0	0	507	507	0	0	38	0	
5	0	0	0	0	508	506	0	0	38	0	
6	0	0	0	0	511	506	0	0	38	0	
7	0	0	0	0	511	506	0	0	39	0	
8	0	0	0	0	509	506	0	0	38	0	
9	0	0	0	0	508	505	0	0	38	0	
10	0	0	0	0	511	504	0	0	38	0	
11	0	0	0	0	511	505	0	0	38	0	
12	0	0	0	0	510	505	0	0	38	0	
13	0	0	0	0	513	505	0	0	38	0	
14	0	0	0	0	513	504	0	0	38	0	
15	0	0	0	0	519	506	0	0	39	0	
0	0	0	0	0	513	506	0	0	38	0	
1	0	0	0	0	508	505	0	0	38	0	
2	0	0	0	0	508	506	0	0	38	0	
3	0	0	0	0	504	507	0	0	38	0	
4	0	0	0	0	500	507	0	0	38	0	
5	0	0	0	0	498	508	0	0	38	0	
6	0	0	0	0	502	509	0	0	38	0	
7	0	0	0	0	512	508	0	0	39	0	
8	0	0	0	0	515	509	0	0	38	0	
9	0	0	0	0	512	509	0	0	38	0	
10	0	0	0	0	505	508	0	0	38	0	
11	0	0	0	0	507	509	0	0	38	0	
12	0	0	0	0	509	510	0	0	38	0	
13	0	0	0	0	508	511	0	0	38	0	
14	0	0	0	0	508	510	0	0	38	0	
15	0	0	0	0	512	509	0	0	39	0	
0	0	0	0	0	513	509	0	0	38	0	
1	0	0	0	0	511	508	0	0	38	0	
2	0	0	0	0	511	508	0	0	38	0	
3	0	0	0	0	514	508	0	0	38	0	
4	0	0	0	0	512	507	0	0	38	0	
5	0	0	0	0	507	507	0	0	38	0	
6	0	0	0	0	503	507	0	0	38	0	
7	0	0	0	0	505	507	0	0	39	0	
8	0	0	0	0	511	505	0	0	38	0	
9	0	0	0	0	506	507	0	0	38	0	
10	0	0	0	0	506	507	0	0	38	0	
11	0	0	0	0	506	507	0	0	38	0	
12	0	0	0	0	506	508	0	0	38	0	
13	0	0	0	0	508	508	0	0	38	0	
14	0	0	0	0	507	506	0	0	38	0	
15	0	0	0	0	515	507	0	0	39	0	
0	0	0	0	0	516	508	0	0	38	0	
1	0	0	0	0	511	508	0	0	38	0	
2	0	0	0	0	508	508	0	0	38	0	
3	0	0	0	0	504	508	0	0	38	0	
4	0	0	0	0	507	507	0	0	38	0	
5	0	0	0	0	513	507	0	0	38	0	
6	0	0	0	0	510	507	0	0	38	0	
7	0	0	0	0	508	507	0	0	39	0	
8	0	0	0	0	507	508	0	0	38	0	
9	0	0	0	0	508	508	0	0	38	0	
10	0	0	0	0	511	509	0	0	38	0	
11	0	0	0	0	510	506	0	0	38	0	
12	0	0	0	0	505	508	0	0	38	0	
13	0	0	0	0	503	511	0	0	38	0	
14	0	0	0	0	505	511	0	0	38	0	
15	0	0	0	0	510	508	0	0	39	0	
0	0	0	0	0	508	506	0	0	38	0	
1	0	0	0	0	508	507	0	0	38	0	
2	0	0	0	0	511	508	0	0	38	0	
3	0	0	0	0	514	508	0	0	38	0	
4	0	0	0	0	516	508	0	0	38	0	
5	0	0	0	0	512	508	0	0	38	0	
6	0	0	0	0	510	506	0	0	38	0	
7	0	0	0	0	505	507	0	0	39	0	
8	0	0	0	0	505	506	0	0	38	0	
9	0	0	0	0	504	504	0	0	38	0	
10	0	0	0	0	510	504	0	185	38	0	
11	0	0	0	0	505	505	0	406	38	0	
12	0	0	0	0	494	507	0	634	38	0	
13	0	0	0	0	497	508	0	869	38	0	
14	0	0	0	0	508	508	0	1018	38	0	
15	0	0	0	0	515	506	0	1018	39	0	
0	0	0	0	0	524	507	0	1018	38	0	
1	0	0	0	0	510	507	0	1018	38	0	
2	0	0	0	0	502	508	0	1018	38	0	
3	0	0	0	0	507	509	0	1018	38	0	
4	0	0	0	0	513	509	0	1018	38	0	
5	0	0	0	0	512	510	0	1017	38	0	
6	0	0	0	0	511	508	0	1018	38	0	
7	0	0	0	0	513	507	0	1018	39	0	
8	0	0	0	0	512	505	0	1018	38	0	
9	0	0	0	0	503	508	0	1018	38	0	
10	0	0	0	0	504	508	0	1018	38	0	
11	0	0	0	0	505	508	0	1018	38	0	
12	0	0	0	0	506	510	0	1018	38	0	
13	0	0	0	0	510	510	0	1018	38	0	
14	0	0	0	0	509	511	0	1018	38	0	
15	0	0	0	0	516	510	0	1018	39	0	
0	0	0	0	0	514	511	0	1018	38	0	
1	0	0	0	0	512	511	0	1018	38	0	
2	0	0	0	0	512	513	0	1018	38	0	
3	0	0	0	0	509	511	0	1018	38	0	
4	0	0	0	0	508	510	0	1018	38	0	
5	0	0	0	0	507	511	0	1018	38	0	
6	0	0	0	0	509	511	0	1018	38	0	
7	0	0	0	0	508	509	0	1018	39	0	
8	0	0	0	0	512	508	0	1018	38	0	
9	0	0	0	0	510	508	0	1018	38	0	
10	0	0	0	0	508	508	0	1018	38	0	
11	0	0	0	0	510	510	0	1018	38	0	
12	0	0	0	0	508	508	0	1018	38	0	
13	0	0	0	0	509	508	0	1018	38	0	
14	0	0	0	0	510	509	0	1018	38	0	
15	0	0	0	0	511	509	0	1018	39	0	
0	0	0	0	0	509	508	0	1018	38	0	
1	0	0	0	0	511	508	0	1018	38	0	
2	0	0	0	0	514	508	0	741	38	0	
3	0	0	0	0	512	507	0	350	38	0	
4	0	0	0	0	505	506	0	78	38	0	
5	0	0	0	0	504	508	0	0	38	0	
6	0	0	0	0	508	508	0	0	38	0	
7	0	0	0	0	507	507	0	0	39	0	
8	0	0	0	0	501	506	0	0	38	0	
9	0	0	0	0	507	505	0	0	38	0	
10	0	0	0	0	514	505	0	0	38	0	
11	0	0	0	0	512	505	0	0	38	0	
12	0	0	0	0	508	504	0	0	38	0	
13	0	0	0	0	507	504	0	0	38	0	
14	0	0	0	0	507	506	0	0	38	0	
15	0	0	0	0	509	509	0	0	39	0	
0	0	0	0	0	514	507	0	0	38	0	
1	0	0	0	0	515	507	0	0	38	0	
2	0	0	0	0	513	507	0	0	38	0	
3	0	0	0	0	505	506	0	0	38	0	
4	0	0	0	0	504	507	0	0	38	0	
5	0	0	0	0	505	507	0	0	38	0	
6	0	0	0	0	508	507	0	0	38	0	
7	0	0	0	0	512	507	0	0	39	0	
8	0	0	0	0	504	509	0	0	38	0	
9	0	0	0	0	506	509	0	0	38	0	
10	0	0	0	0	505	510	0	463	38	0	
11	0	0	0	0	508	509	0	906	38	0	
12	0	0	0	0	516	508	0	1018	38	0	
13	0	0	0	0	517	507	0	1018	38	0	
14	0	0	0	0	510	508	0	1018	38	0	
15	0	0	0	0	504	507	0	1018	39	0	
0	0	0	0	0	501	508	0	1018	38	0	
1	0	0	0	0	503	508	0	1018	38	0	
2	0	0	0	0	504	509	0	1018	38	0	
3	0	0	0	0	509	509	0	1018	38	0	
4	0	0	0	0	512	507	0	1018	38	0	
5	0	0	0	0	512	507	0	1018	38	0	
6	0	0	0	0	515	507	0	1018	38	0	
7	0	0	0	0	513	508	0	1018	39	0	
8	0	0	0	0	516	507	0	1018	38	0	
9	0	0	0	0	513	507	0	1018	38	0	
10	0	0	0	0	510	504	0	1018	38	0	
11	0	0	0	0	512	504	0	1018	38	0	
12	0	0	0	0	508	504	0	1018	38	0	
13	0	0	0	0	511	506	0	1017	38	0	
14	0	0	0	0	514	507	0	1017	38	0	
15	0	0	0	0	512	506	0	892	39	0	
0	0	0	0	0	508	505	0	975	38	0	
1	0	0	0	0	509	504	0	910	38	0	
2	0	0	0	0	510	508	0	872	38	0	
3	0	0	0	0	510	506	0	897	38	0	
4	0	0	0	0	510	507	0	1018	38	0	
5	0	0	0	0	510	507	0	1018	38	0	
6	0	0	0	0	510	507	0	1018	38	0	
7	0	0	0	0	502	508	0	1018	39	0	
8	0	0	0	0	503	508	0	1018	38	0	
9	0	0	0	0	511	508	0	1018	38	0	
10	0	0	0	0	515	508	0	1018	38	0	
11	0	0	0	0	512	508	0	1018	38	0	
12	0	0	0	0	512	509	0	1018	38	0	
13	0	0	0	0	504	509	0	1018	38	0	
14	0	0	0	0	496	507	0	1018	38	0	
15	0	0	0	0	507	507	0	1018	39	0	
0	0	0	0	0	508	507	0	1018	38	0	
1	0	0	0	0	513	507	0	1018	38	0	
2	0	0	0	0	510	506	0	1018	38	0	
3	0	0	0	0	511	506	0	1018	38	0	
4	0	0	0	0	513	507	0	1018	38	0	
5	0	0	0	0	508	507	0	1018	38	0	
6	0	0	0	0	510	508	0	1017	38	0	
7	0	0	0	0	514	506	0	905	39	0	
8	0	0	0	0	508	505	0	902	38	0	
9	0	0	0	0	510	507	0	893	38	0	
10	0	0	0	0	511	507	0	991	38	0	
11	0	0	0	0	511	506	0	1017	38	0	
12	0	0	0	0	507	506	0	1018	38	0	
13	0	0	0	0	500	509	0	1017	38	0	
14	0	0	0	0	497	509	0	1018	38	0	
15	0	0	0	0	507	508	0	1018	39	0	
0	0	0	0	0	511	508	0	1018	38	0	
1	0	0	0	0	507	509	0	1018	38	0	
2	0	0	0	0	510	511	0	1018	38	0	
3	0	0	0	0	515	511	0	1018	38	0	
4	0	0	0	0	509	512	0	1018	38	0	
5	0	0	0	0	507	514	0	1017	38	0	
6	0	0	0	0	512	514	0	1017	38	0	
7	0	0	0	0	512	512	0	710	39	0	
8	0	0	0	0	512	511	0	443	38	0	
9	0	0	0	0	511	510	0	281	38	0	
10	0	0	0	0	510	509	0	24	38	0	
11	0	0	0	0	509	508	0	0	38	0	
12	0	0	0	0	505	511	0	0	38	0	
13	0	0	0	0	511	511	0	0	38	0	
14	0	0	0	0	514	511	0	0	38	0	
15	0	0	0	0	519	511	0	236	39	0	
0	0	0	0	0	510	512	0	480	38	0	
1	0	0	0	0	501	512	0	775	38	0	
2	0	0	0	0	504	513	0	1018	38	0	
3	0	0	0	0	508	511	0	1018	38	0	
4	0	0	0	0	506	510	0	1018	38	0	
5	0	0	0	0	507	510	0	1018	38	0	
6	0	0	0	0	506	508	0	1018	38	0	
7	0	0	0	0	511	507	0	1018	39	0	
8	0	0	0	0	508	507	0	1018	38	0	
9	0	0	0	0	509	505	0	1018	38	0	
10	0	0	0	0	509	504	0	1018	38	0	
11	0	0	0	0	510	505	0	1018	38	0	
12	0	0	0	0	508	505	0	1018	38	0	
13	0	0	0	0	505	507	0	1018	38	0	
14	0	0	0	0	507	508	0	1018	38	0	
15	0	0	0	0	512	507	0	1018	39	0	
0	0	0	0	0	519	506	0	1018	38	0	
1	0	0	0	0	510	507	0	1018	38	0	
2	0	0	0	0	502	508	0	1018	38	0	
3	0	0	0	0	506	507	0	1018	38	0	
4	0	0	0	0	509	508	0	1018	38	0	
5	0	0	0	0	507	508	0	1018	38	0	
6	0	0	0	0	504	509	0	1018	38	0	
7	0	0	0	0	510	511	0	1018	39	0	
8	0	0	0	0	511	511	0	1018	38	0	
9	0	0	0	0	508	510	0	1018	38	0	
10	0	0	0	0	512	507	0	1018	38	0	
11	0	0	0	0	515	506	0	1018	38	0	
12	0	0	0	0	516	505	0	1018	38	0	
13	0	0	0	0	511	505	0	1018	38	0	
14	0	0	0	0	512	505	0	1018	38	0	
15	0	0	0	0	514	504	0	1018	39	0	
0	0	0	0	0	508	504	0	1018	38	0	
1	0	0	0	0	505	503	0	1018	38	0	
2	0	0	0	0	505	503	0	1018	38	0	
3	0	0	0	0	503	504	0	1018	38	0	
4	0	0	0	0	509	505	0	1018	38	0	
5	0	0	0	0	516	505	0	1018	38	0	
6	0	0	0	0	510	505	0	1018	38	0	
7	0	0	0	0	506	506	0	1018	39	0	
8	0	0	0	0	512	507	0	1018	38	0	
9	0	0	0	0	514	508	0	1018	38	0	
10	0	0	0	0	512	508	0	1018	38	0	
11	0	0	0	0	504	507	0	1017	38	0	
12	0	0	0	0	505	507	0	568	38	0	
13	0	0	0	0	506	506	0	230	38	0	
14	0	0	0	0	509	505	0	0	38	0	
15	0	0	0	0	507	504	0	0	39	0	
0	0	0	0	0	505	505	0	0	38	0	
1	0	0	0	0	505	507	0	0	38	0	
2	0	0	0	0	510	507	0	0	38	0	
3	0	0	0	0	515	507	0	0	38	0	
4	0	0	0	0	512	505	0	0	38	0	
5	0	0	0	0	506	505	0	0	38	0	
6	0	0	0	0	504	507	0	0	38	0	
7	0	0	0	0	507	507	0	0	39	0	
8	0	0	0	0	514	508	0	690	38	0	
9	0	0	0	0	516	509	0	1018	38	0	
10	0	0	0	0	511	510	0	1018	38	0	
11	0	0	0	0	505	509	0	1018	38	0	
12	0	0	0	0	505	508	0	1018	38	0	
13	0	0	0	0	505	509	0	1018	38	0	
14	0	0	0	0	508	508	0	1018	38	0	
15	0	0	0	0	512	508	0	1018	39	0	
0	0	0	0	0	510	508	0	1018	38	0	
1	0	0	0	0	511	508	0	1018	38	0	
2	0	0	0	0	511	509	0	1018	38	0	
3	0	0	0	0	512	509	0	1018	38	0	
4	0	0	0	0	510	509	0	1018	38	0	
5	0	0	0	0	508	511	0	1018	38	0	
6	0	0	0	0	505	510	0	1018	38	0	
7	0	0	0	0	506	508	0	1018	39	0	
8	0	0	0	0	508	507	0	1018	38	0	
9	0	0	0	0	516	507	0	1018	38	0	
10	0	0	0	0	515	507	0	1018	38	0	
11	0	0	0	0	512	507	0	1018	38	0	
12	0	0	0	0	512	509	0	1018	38	0	
13	0	0	0	0	511	508	0	1018	38	0	
14	0	0	0	0	513	508	0	1018	38	0	
15	0	0	0	0	511	509	0	1018	39	0	
0	0	0	0	0	500	508	0	1018	38	0	
1	0	0	0	0	501	508	0	1018	38	0	
2	0	0	0	0	503	507	0	1018	38	0	
3	0	0	0	0	512	507	0	1018	38	0	
4	0	0	0	0	515	506	0	1018	38	0	
5	0	0	0	0	508	505	0	1018	38	0	
6	0	0	0	0	506	507	0	1018	38	0	
7	0	0	0	0	512	507	0	1018	39	0	
8	0	0	0	0	510	505	0	1018	38	0	
9	0	0	0	0	511	505	0	1018	38	0	
10	0	0	0	0	503	506	0	1018	38	0	
11	0	0	0	0	510	506	0	1018	38	0	
12	0	0	0	0	508	505	0	1018	38	0	
13	0	0	0	0	505	508	0	1018	38	0	
14	0	0	0	0	509	509	0	1018	38	0	
15	0	0	0	0	510	510	0	1018	39	0	
0	0	0	0	0	510	507	0	1018	38	0	
1	0	0	0	0	506	507	0	1018	38	0	
2	0	0	0	0	509	506	0	1018	38	0	
3	0	0	0	0	510	506	0	1018	38	0	
4	0	0	0	0	505	507	0	1018	38	0	
5	0	0	0	0	511	508	0	1018	38	0	
6	0	0	0	0	517	508	0	1018	38	0	
7	0	0	0	0	510	510	0	1018	39	0	
8	0	0	0	0	510	510	0	1018	38	0	
9	0	0	0	0	509	509	0	1018	38	0	
10	0	0	0	0	512	510	0	1018	38	0	
11	0	0	0	0	515	509	0	1018	38	0	
12	0	0	0	0	511	510	0	1018	38	0	
13	0	0	0	0	509	510	0	1018	38	0	
14	0	0	0	0	505	509	0	1018	38	0	
15	0	0	0	0	507	508	0	1018	39	0	
0	0	0	0	0	511	507	0	1018	38	0	
1	0	0	0	0	510	507	0	1018	38	0	
2	0	0	0	0	508	505	0	1018	38	0	
3	0	0	0	0	511	504	0	1018	38	0	
4	0	0	0	0	507	507	0	1018	38	0	
5	0	0	0	0	508	506	0	1018	38	0	
6	0	0	0	0	509	507	0	1018	38	0	
7	0	0	0	0	508	508	0	1018	39	0	
8	0	0	0	0	506	509	0	1018	38	0	
9	0	0	0	0	507	510	0	1018	38	0	
10	0	0	0	0	510	511	0	1018	38	0	
11	0	0	0	0	508	510	0	1018	38	0	
12	0	0	0	0	512	510	0	1018	38	0	
13	0	0	0	0	511	509	0	1018	38	0	
14	0	0	0	0	508	508	0	1018	38	0	
15	0	0	0	0	512	508	0	1018	39	0	
0	0	0	0	0	506	509	0	1018	38	0	
1	0	0	0	0	508	510	0	1018	38	0	
2	0	0	0	0	513	509	0	1018	38	0	
3	0	0	0	0	509	508	0	1018	38	0	
4	0	0	0	0	510	509	0	1018	38	0	
5	0	0	0	0	508	508	0	1018	38	0	
6	0	0	0	0	513	508	0	1018	38	0	
7	0	0	0	0	513	506	0	1018	39	0	
8	0	0	0	0	508	506	0	1018	38	0	
9	0	0	0	0	504	505	0	1017	38	0	
10	0	0	0	0	504	507	0	1018	38	0	
11	0	0	0	0	503	509	0	1018	38	0	
12	0	0	0	0	504	508	0	871	38	0	
13	0	0	0	0	506	509	0	643	38	0	
14	0	0	0	0	507	509	0	392	38	0	
15	0	0	0	0	511	508	0	34	39	0	
0	0	0	0	0	512	509	0	0	38	0	
1	0	0	0	0	513	508	0	0	38	0	
2	0	0	0	0	510	509	0	0	38	0	
3	0	0	0	0	511	508	0	0	38	0	
4	0	0	0	0	513	507	0	0	38	0	
5	0	0	0	0	510	508	0	0	38	0	
6	0	0	0	0	513	506	0	0	38	0	
7	0	0	0	0	511	505	0	0	39	0	
8	0	0	0	0	513	506	0	0	38	0	
9	0	0	0	0	512	507	0	0	38	0	
10	0	0	0	0	510	509	0	0	38	0	
11	0	0	0	0	507	510	0	0	38	0	
12	0	0	0	0	510	508	0	0	38	0	
13	0	0	0	0	507	511	0	0	38	0	
14	0	0	0	0	504	510	0	0	38	0	
15	0	0	0	0	505	509	0	0	39	0	
0	0	0	0	0	507	510	0	0	38	0	
1	0	0	0	0	505	508	0	0	38	0	
2	0	0	0	0	506	508	0	0	38	0	
3	0	0	0	0	504	507	0	0	38	0	
4	0	0	0	0	504	507	0	0	38	0	
5	0	0	0	0	510	508	0	0	38	0	
6	0	0	0	0	505	507	0	0	38	0	
7	0	0	0	0	508	508	0	0	39	0	
8	0	0	0	0	510	508	0	0	38	0	
9	0	0	0	0	513	508	0	0	38	0	
10	0	0	0	0	508	508	0	0	38	0	
11	0	0	0	0	510	510	0	0	38	0	
12	0	0	0	0	515	508	0	0	38	0	
13	0	0	0	0	511	510	0	0	38	0	
14	0	0	0	0	506	508	0	0	38	0	
15	0	0	0	0	507	508	0	0	39	0	
0	0	0	0	0	510	508	0	0	38	0	
1	0	0	0	0	506	507	0	0	38	0	
2	0	0	0	0	507	507	0	0	38	0	
3	0	0	0	0	511	506	0	0	38	0	
4	0	0	0	0	511	507	0	0	38	0	
5	0	0	0	0	508	506	0	0	38	0	
6	0	0	0	0	513	508	0	0	38	0	
7	0	0	0	0	511	507	0	0	39	0	
8	0	0	0	0	511	509	0	0	38	0	
9	0	0	0	0	510	508	0	0	38	0	
10	0	0	0	0	504	507	0	0	38	0	
11	0	0	0	0	501	505	0	0	38	0	
12	0	0	0	0	509	505	0	0	38	0	
13	0	0	0	0	510	505	0	0	38	0	
14	0	0	0	0	507	505	0	0	38	0	
15	0	0	0	0	503	508	0	0	39	0	
0	0	0	0	0	507	509	0	0	38	0	
1	0	0	0	0	509	508	0	290	38	0	
2	0	0	0	0	513	508	0	555	38	0	
3	0	0	0	0	512	507	0	737	38	0	
4	0	0	0	0	508	507	0	820	38	0	
5	0	0	0	0	508	506	0	782	38	0	
6	0	0	0	0	508	507	0	597	38	0	
7	0	0	0	0	511	507	0	369	39	0	
8	0	0	0	0	510	506	0	118	38	0	
9	0	0	0	0	506	507	0	0	38	0	
10	0	0	0	0	505	507	0	0	38	0	
11	0	0	0	0	507	507	0	0	38	0	
12	0	0	0	0	505	507	0	0	38	0	
13	0	0	0	0	511	505	0	0	38	0	
14	0	0	0	0	514	505	0	0	38	0	
15	0	0	0	0	515	507	0	0	39	0	
0	0	0	0	0	503	507	0	0	38	0	
1	0	0	0	0	502	507	0	0	38	0	
2	0	0	0	0	508	506	0	0	38	0	
3	0	0	0	0	512	505	0	0	38	0	
4	0	0	0	0	511	506	0	0	38	0	
5	0	0	0	0	512	508	0	0	38	0	
6	0	0	0	0	511	510	0	0	38	0	
7	0	0	0	0	510	508	0	0	39	0	
8	0	0	0	0	513	508	0	0	38	0	
9	0	0	0	0	512	507	0	0	38	0	
10	0	0	0	0	504	506	0	0	38	0	
11	0	0	0	0	510	508	0	0	38	0	
12	0	0	0	0	514	509	0	0	38	0	
13	0	0	0	0	508	507	0	0	38	0	
14	0	0	0	0	506	507	0	0	38	0	
15	0	0	0	0	507	507	0	0	39	0	
0	0	0	0	0	512	507	0	0	38	0	
1	0	0	0	0	511	506	0	0	38	0	
2	0	0	0	0	511	506	0	0	38	0	
3	0	0	0	0	508	505	0	0	38	0	
4	0	0	0	0	497	506	0	0	38	0	
5	0	0	0	0	507	508	0	0	38	0	
6	0	0	0	0	509	509	0	0	38	0	
7	0	0	0	0	507	508	0	0	39	0	
8	0	0	0	0	511	509	0	0	38	0	
9	0	0	0	0	510	510	0	0	38	0	
10	0	0	0	0	506	510	0	0	38	0	
11	0	0	0	0	507	510	0	0	38	0	
12	0	0	0	0	510	509	0	0	38	0	
13	0	0	0	0	514	506	0	0	38	0	
14	0	0	0	0	511	506	0	0	38	0	
15	0	0	0	0	510	505	0	0	39	0	
0	0	0	0	0	512	505	0	0	38	0	
1	0	0	0	0	510	505	0	0	38	0	
2	0	0	0	0	511	507	0	0	38	0	
3	0	0	0	0	504	506	0	0	38	0	
4	0	0	0	0	507	505	0	0	38	0	
5	0	0	0	0	509	506	0	0	38	0	
6	0	0	0	0	510	505	0	0	38	0	
7	0	0	0	0	511	507	0	0	39	0	
8	0	0	0	0	510	508	0	0	38	0	
9	0	0	0	0	509	508	0	0	38	0	
10	0	0	0	0	505	508	0	0	38	0	
11	0	0	0	0	504	508	0	0	38	0	
12	0	0	0	0	508	508	0	0	38	0	
13	0	0	0	0	506	509	0	0	38	0	
14	0	0	0	0	507	511	0	0	38	0	
15	0	0	0	0	512	510	0	0	39	0	
0	0	0	0	0	511	509	0	0	38	0	
1	0	0	0	0	509	508	0	0	38	0	
2	0	0	0	0	509	507	0	0	38	0	
3	0	0	0	0	509	509	0	0	38	0	
4	0	0	0	0	510	508	0	0	38	0	
5	0	0	0	0	509	508	0	0	38	0	
6	0	0	0	0	507	508	0	0	38	0	
7	0	0	0	0	505	510	0	0	39	0	
8	0	0	0	0	510	509	0	0	38	0	
9	0	0	0	0	512	509	0	0	38	0	
10	0	0	0	0	508	510	0	0	38	0	
11	0	0	0	0	507	509	0	0	38	0	
12	0	0	0	0	506	508	0	0	38	0	
13	0	0	0	0	510	506	0	0	38	0	
14	0	0	0	0	510	506	0	0	38	0	
15	0	0	0	0	511	508	0	0	39	0	
0	0	0	0	0	516	505	0	0	38	0	
1	0	0	0	0	511	507	0	0	38	0	
2	0	0	0	0	508	506	0	0	38	0	
3	0	0	0	0	508	505	0	0	38	0	
4	0	0	0	0	508	505	0	0	38	0	
5	0	0	0	0	507	508	0	0	38	0	
6	0	0	0	0	509	510	0	0	38	0	
7	0	0	0	0	508	510	0	0	39	0	
8	0	0	0	0	511	510	0	0	38	0	
9	0	0	0	0	513	511	0	0	38	0	
10	0	0	0	0	510	512	0	244	38	0	
11	0	0	0	0	505	510	0	763	38	0	
12	0	0	0	0	505	510	0	1018	38	0	
13	0	0	0	0	504	508	0	1018	38	0	
14	0	0	0	0	506	508	0	1018	38	0	
15	0	0	0	0	514	507	0	1018	39	0	
0	0	0	0	0	511	508	0	1018	38	0	
1	0	0	0	0	507	508	0	1018	38	0	
2	0	0	0	0	507	508	0	1018	38	0	
3	0	0	0	0	505	507	0	1018	38	0	
4	0	0	0	0	511	507	0	1018	38	0	
5	0	0	0	0	510	506	0	1018	38	0	
6	0	0	0	0	512	506	0	719	38	0	
7	0	0	0	0	515	505	0	471	39	0	
8	0	0	0	0	516	506	0	284	38	0	
9	0	0	0	0	519	506	0	140	38	0	
10	0	0	0	0	508	507	0	82	38	0	
11	0	0	0	0	498	508	0	0	38	0	
12	0	0	0	0	499	508	0	0	38	0	
13	0	0	0	0	509	510	0	0	38	0	
14	0	0	0	0	514	509	0	0	38	0	
15	0	0	0	0	508	508	0	0	39	0	
0	0	0	0	0	507	508	0	0	38	0	
1	0	0	0	0	506	505	0	0	38	0	
2	0	0	0	0	503	505	0	0	38	0	
3	0	0	0	0	505	508	0	0	38	0	
4	0	0	0	0	504	505	0	0	38	0	
5	0	0	0	0	510	506	0	0	38	0	
6	0	0	0	0	511	505	0	0	38	0	
7	0	0	0	0	508	504	0	0	39	0	
8	0	0	0	0	512	505	0	0	38	0	
9	0	0	0	0	513	505	0	0	38	0	
10	0	0	0	0	515	507	0	0	38	0	
11	0	0	0	0	514	505	0	0	38	0	
12	0	0	0	0	508	506	0	0	38	0	
13	0	0	0	0	513	505	0	0	38	0	
14	0	0	0	0	509	506	0	0	38	0	
15	0	0	0	0	512	506	0	0	39	0	
0	0	0	0	0	504	505	0	0	38	0	
1	0	0	0	0	504	505	0	0	38	0	
2	0	0	0	0	511	505	0	0	38	0	
3	0	0	0	0	510	507	0	239	38	0	
4	0	0	0	0	508	506	0	517	38	0	
5	0	0	0	0	510	505	0	807	38	0	
6	0	0	0	0	508	505	0	998	38	0	
7	0	0	0	0	504	507	0	1018	39	0	
8	0	0	0	0	506	509	0	1018	38	0	
9	0	0	0	0	511	509	0	1018	38	0	
10	0	0	0	0	510	507	0	1018	38	0	
11	0	0	0	0	508	506	0	1018	38	0	
12	0	0	0	0	509	506	0	1018	38	0	
13	0	0	0	0	508	508	0	1018	38	0	
14	0	0	0	0	508	509	0	1018	38	0	
15	0	0	0	0	511	508	0	1018	39	0	
0	0	0	0	0	513	506	0	1018	38	0	
1	0	0	0	0	518	506	0	1018	38	0	
2	0	0	0	0	513	507	0	1018	38	0	
3	0	0	0	0	511	507	0	1018	38	0	
4	0	0	0	0	508	509	0	1018	38	0	
5	0	0	0	0	513	508	0	1018	38	0	
6	0	0	0	0	517	508	0	1018	38	0	
7	0	0	0	0	504	507	0	1018	39	0	
8	0	0	0	0	496	508	0	1018	38	0	
9	0	0	0	0	492	508	0	1018	38	0	
10	0	0	0	0	503	508	0	1018	38	0	
11	0	0	0	0	510	508	0	1018	38	0	
12	0	0	0	0	509	508	0	1018	38	0	
13	0	0	0	0	511	509	0	1018	38	0	
14	0	0	0	0	512	509	0	1018	38	0	
15	0	0	0	0	511	511	0	1018	39	0	
0	0	0	0	0	510	510	0	1018	38	0	
1	0	0	0	0	510	509	0	1018	38	0	
2	0	0	0	0	517	510	0	1018	38	0	
3	0	0	0	0	516	509	0	1018	38	0	
4	0	0	0	0	513	510	0	1018	38	0	
5	0	0	0	0	514	509	0	1018	38	0	
6	0	0	0	0	508	506	0	1018	38	0	
7	0	0	0	0	505	507	0	1018	39	0	
8	0	0	0	0	503	507	0	1018	38	0	
9	0	0	0	0	507	508	0	1018	38	0	
10	0	0	0	0	510	507	0	1018	38	0	
11	0	0	0	0	513	506	0	1018	38	0	
12	0	0	0	0	514	507	0	1018	38	0	
13	0	0	0	0	509	506	0	1018	38	0	
14	0	0	0	0	510	507	0	1018	38	0	
15	0	0	0	0	510	509	0	1018	39	0	
0	0	0	0	0	507	508	0	1018	38	0	
1	0	0	0	0	510	507	0	1018	38	0	
2	0	0	0	0	508	507	0	1018	38	0	
3	0	0	0	0	504	508	0	1018	38	0	
4	0	0	0	0	508	508	0	1018	38	0	
5	0	0	0	0	512	508	0	1018	38	0	
6	0	0	0	0	515	509	0	1018	38	0	
7	0	0	0	0	514	509	0	1018	39	0	
8	0	0	0	0	512	509	0	1018	38	0	
9	0	0	0	0	514	511	0	1018	38	0	
10	0	0	0	0	515	510	0	1018	38	0	
11	0	0	0	0	499	510	0	1018	38	0	
12	0	0	0	0	499	510	0	1018	38	0	
13	0	0	0	0	506	509	0	1018	38	0	
14	0	0	0	0	508	508	0	1018	38	0	
15	0	0	0	0	507	507	0	1018	39	0	
0	0	0	0	0	511	505	0	1018	38	0	
1	0	0	0	0	512	505	0	1018	38	0	
2	0	0	0	0	510	507	0	1018	38	0	
3	0	0	0	0	510	509	0	1018	38	0	
4	0	0	0	0	510	509	0	1018	38	0	
5	0	0	0	0	510	509	0	1018	38	0	
6	0	0	0	0	506	510	0	1018	38	0	
7	0	0	0	0	505	509	0	1018	39	0	
8	0	0	0	0	511	510	0	1018	38	0	
9	0	0	0	0	515	509	0	1018	38	0	
10	0	0	0	0	514	510	0	1018	38	0	
11	0	0	0	0	508	511	0	1018	38	0	
12	0	0	0	0	504	510	0	1018	38	0	
13	0	0	0	0	505	509	0	1018	38	0	
14	0	0	0	0	506	508	0	1018	38	0	
15	0	0	0	0	510	507	0	1017	39	0	
0	0	0	0	0	514	507	0	1018	38	0	
1	0	0	0	0	510	507	0	1018	38	0	
2	0	0	0	0	511	509	0	1018	38	0	
3	0	0	0	0	507	509	0	764	38	0	
4	0	0	0	0	503	508	0	536	38	0	
5	0	0	0	0	509	506	0	356	38	0	
6	0	0	0	0	509	507	0	210	38	0	
7	0	0	0	0	513	507	0	52	39	0	
8	0	0	0	0	514	505	0	0	38	0	
9	0	0	0	0	507	506	0	0	38	0	
10	0	0	0	0	513	506	0	0	38	0	
11	0	0	0	0	520	507	0	0	38	0	
12	0	0	0	0	516	507	0	0	38	0	
13	0	0	0	0	503	507	0	0	38	0	
14	0	0	0	0	500	506	0	0	38	0	
15	0	0	0	0	500	506	0	0	39	0	
0	0	0	0	0	507	505	0	0	38	0	
1	0	0	0	0	511	506	0	0	38	0	
2	0	0	0	0	508	505	0	0	38	0	
3	0	0	0	0	503	505	0	0	38	0	
4	0	0	0	0	509	506	0	0	38	0	
5	0	0	0	0	509	506	0	0	38	0	
6	0	0	0	0	511	506	0	0	38	0	
7	0	0	0	0	509	505	0	0	39	0	
8	0	0	0	0	509	506	0	0	38	0	
9	0	0	0	0	511	507	0	0	38	0	
10	0	0	0	0	511	508	0	0	38	0	
11	0	0	0	0	509	508	0	0	38	0	
12	0	0	0	0	507	508	0	0	38	0	
13	0	0	0	0	513	508	0	0	38	0	
14	0	0	0	0	510	508	0	0	38	0	
15	0	0	0	0	508	506	0	0	39	0	
0	0	0	0	0	508	505	0	0	38	0	
1	0	0	0	0	508	506	0	0	38	0	
2	0	0	0	0	507	508	0	0	38	0	
3	0	0	0	0	505	507	0	0	38	0	
4	0	0	0	0	507	509	0	507	38	0	
5	0	0	0	0	508	512	0	1018	38	0	
6	0	0	0	0	512	512	0	1018	38	0	
7	0	0	0	0	512	512	0	1018	39	0	
8	0	0	0	0	514	512	0	1018	38	0	
9	0	0	0	0	517	512	0	1018	38	0	
10	0	0	0	0	507	510	0	1018	38	0	
11	0	0	0	0	511	510	0	1018	38	0	
12	0	0	0	0	513	511	0	1018	38	0	
13	0	0	0	0	502	510	0	1018	38	0	
14	0	0	0	0	502	508	0	1018	38	0	
15	0	0	0	0	507	508	0	1018	39	0	
0	0	0	0	0	508	507	0	1018	38	0	
1	0	0	0	0	506	507	0	1018	38	0	
2	0	0	0	0	507	506	0	1018	38	0	
3	0	0	0	0	507	507	0	1018	38	0	
4	0	0	0	0	507	507	0	1018	38	0	
5	0	0	0	0	508	509	0	1018	38	0	
6	0	0	0	0	512	509	0	1018	38	0	
7	0	0	0	0	513	508	0	1018	39	0	
8	0	0	0	0	511	507	0	1018	38	0	
9	0	0	0	0	513	507	0	1018	38	0	
10	0	0	0	0	505	506	0	1018	38	0	
11	0	0	0	0	506	506	0	1018	38	0	
12	0	0	0	0	512	507	0	1018	38	0	
13	0	0	0	0	514	507	0	1018	38	0	
14	0	0	0	0	512	507	0	1018	38	0	
15	0	0	0	0	509	506	0	1018	39	0	
0	0	0	0	0	508	507	0	1018	38	0	
1	0	0	0	0	507	507	0	1018	38	0	
2	0	0	0	0	504	508	0	1018	38	0	
3	0	0	0	0	507	509	0	1018	38	0	
4	0	0	0	0	508	511	0	1018	38	0	
5	0	0	0	0	510	510	0	1018	38	0	
6	0	0	0	0	518	509	0	1018	38	0	
7	0	0	0	0	522	510	0	1018	39	0	
8	0	0	0	0	514	510	0	1018	38	0	
9	0	0	0	0	503	508	0	1018	38	0	
10	0	0	0	0	496	507	0	1018	38	0	
11	0	0	0	0	505	507	0	1018	38	0	
12	0	0	0	0	510	507	0	1018	38	0	
13	0	0	0	0	509	506	0	1018	38	0	
14	0	0	0	0	507	505	0	1018	38	0	
15	0	0	0	0	507	507	0	1018	39	0	
0	0	0	0	0	504	507	0	1018	38	0	
1	0	0	0	0	504	507	0	1018	38	0	
2	0	0	0	0	507	506	0	1018	38	0	
3	0	0	0	0	512	508	0	1018	38	0	
4	0	0	0	0	513	510	0	1018	38	0	
5	0	0	0	0	514	510	0	1018	38	0	
6	0	0	0	0	515	509	0	561	38	0	
7	0	0	0	0	512	508	0	0	39	0	
8	0	0	0	0	507	509	0	0	38	0	
9	0	0	0	0	507	510	0	0	38	0	
10	0	0	0	0	508	510	0	0	38	0	
11	0	0	0	0	510	510	0	0	38	0	
12	0	0	0	0	512	510	0	0	38	0	
13	0	0	0	0	504	510	0	0	38	0	
14	0	0	0	0	510	509	0	0	38	0	
15	0	0	0	0	508	508	0	0	39	0	
0	0	0	0	0	508	508	0	0	38	0	
1	0	0	0	0	508	508	0	0	38	0	
2	0	0	0	0	506	509	0	0	38	0	
3	0	0	0	0	507	509	0	0	38	0	
4	0	0	0	0	512	510	0	0	38	0	
5	0	0	0	0	509	508	0	0	38	0	
6	0	0	0	0	515	510	0	0	38	0	
7	0	0	0	0	513	509	0	0	39	0	
8	0	0	0	0	510	509	0	0	38	0	
9	0	0	0	0	508	508	0	0	38	0	
10	0	0	0	0	508	507	0	0	38	0	
11	0	0	0	0	508	505	0	0	38	0	
12	0	0	0	0	504	507	0	0	38	0	
13	0	0	0	0	505	508	0	0	38	0	
14	0	0	0	0	504	506	0	0	38	0	
15	0	0	0	0	508	507	0	0	39	0	
0	0	0	0	0	511	507	0	0	38	0	
1	0	0	0	0	515	507	0	0	38	0	
2	0	0	0	0	513	507	0	0	38	0	
3	0	0	0	0	508	506	0	0	38	0	
4	0	0	0	0	504	507	0	0	38	0	
5	0	0	0	0	506	506	0	0	38	0	
6	0	0	0	0	502	506	0	0	38	0	
7	0	0	0	0	506	507	0	0	39	0	
8	0	0	0	0	513	507	0	0	38	0	
9	0	0	0	0	515	507	0	0	38	0	
10	0	0	0	0	519	507	0	0	38	0	
11	0	0	0	0	513	508	0	0	38	0	
12	0	0	0	0	515	508	0	0	38	0	
13	0	0	0	0	513	507	0	0	38	0	
14	0	0	0	0	508	507	0	0	38	0	
15	0	0	0	0	499	507	0	0	39	0	
0	0	0	0	0	502	507	0	0	38	0	
1	0	0	0	0	506	507	0	0	38	0	
2	0	0	0	0	510	507	0	0	38	0	
3	0	0	0	0	508	507	0	0	38	0	
4	0	0	0	0	507	507	0	0	38	0	
5	0	0	0	0	508	507	0	0	38	0	
6	0	0	0	0	512	508	0	0	38	0	
7	0	0	0	0	514	508	0	0	39	0	
8	0	0	0	0	505	510	0	0	38	0	
9	0	0	0	0	503	508	0	0	38	0	
10	0	0	0	0	499	508	0	0	38	0	
11	0	0	0	0	507	506	0	0	38	0	
12	0	0	0	0	512	507	0	0	38	0	
13	0	0	0	0	515	507	0	0	38	0	
14	0	0	0	0	513	509	0	0	38	0	
15	0	0	0	0	508	509	0	0	39	0	
0	0	0	0	0	515	510	0	0	38	0	
1	0	0	0	0	509	508	0	0	38	0	
2	0	0	0	0	507	508	0	0	38	0	
3	0	0	0	0	510	511	0	0	38	0	
4	0	0	0	0	510	510	0	0	38	0	
5	0	0	0	0	507	511	0	0	38	0	
6	0	0	0	0	506	511	0	0	38	0	
7	0	0	0	0	515	511	0	0	39	0	
8	0	0	0	0	518	511	0	0	38	0	
9	0	0	0	0	501	510	0	324	38	0	
10	0	0	0	0	502	511	0	897	38	0	
11	0	0	0	0	512	511	0	1018	38	0	
12	0	0	0	0	515	511	0	1018	38	0	
13	0	0	0	0	515	511	0	1018	38	0	
14	0	0	0	0	510	512	0	1018	38	0	
15	0	0	0	0	505	512	0	1018	39	0	
0	0	0	0	0	508	511	0	1018	38	0	
1	0	0	0	0	509	510	0	1018	38	0	
2	0	0	0	0	513	510	0	1018	38	0	
3	0	0	0	0	508	509	0	1018	38	0	
4	0	0	0	0	510	510	0	1018	38	0	
5	0	0	0	0	512	510	0	1018	38	0	
6	0	0	0	0	505	509	0	1018	38	0	
7	0	0	0	0	512	510	0	1018	39	0	
8	0	0	0	0	516	509	0	1018	38	0	
9	0	0	0	0	518	510	0	1018	38	0	
10	0	0	0	0	511	510	0	1018	38	0	
11	0	0	0	0	498	509	0	1018	38	0	
12	0	0	0	0	504	509	0	1018	38	0	
13	0	0	0	0	502	510	0	1018	38	0	
14	0	0	0	0	505	509	0	1018	38	0	
15	0	0	0	0	511	509	0	1018	39	0	
0	0	0	0	0	504	508	0	1018	38	0	
1	0	0	0	0	508	506	0	1018	38	0	
2	0	0	0	0	510	507	0	1018	38	0	
3	0	0	0	0	504	507	0	1017	38	0	
4	0	0	0	0	501	507	0	728	38	0	
5	0	0	0	0	508	505	0	279	38	0	
6	0	0	0	0	515	505	0	0	38	0	
7	0	0	0	0	512	507	0	0	39	0	
8	0	0	0	0	518	505	0	0	38	0	
9	0	0	0	0	519	506	0	0	38	0	
10	0	0	0	0	515	507	0	0	38	0	
11	0	0	0	0	510	505	0	0	38	0	
12	0	0	0	0	504	505	0	0	38	0	
13	0	0	0	0	497	506	0	0	38	0	
14	0	0	0	0	500	505	0	0	38	0	
15	0	0	0	0	505	505	0	0	39	0	
0	0	0	0	0	512	505	0	0	38	0	
1	0	0	0	0	511	507	0	0	38	0	
2	0	0	0	0	506	507	0	0	38	0	
3	0	0	0	0	508	505	0	0	38	0	
4	0	0	0	0	510	505	0	0	38	0	
5	0	0	0	0	514	507	0	0	38	0	
6	0	0	0	0	512	508	0	0	38	0	
7	0	0	0	0	508	509	0	0	39	0	
8	0	0	0	0	506	509	0	0	38	0	
9	0	0	0	0	510	507	0	192	38	0	
10	0	0	0	0	511	507	0	861	38	0	
11	0	0	0	0	509	506	0	1018	38	0	
12	0	0	0	0	511	506	0	1018	38	0	
13	0	0	0	0	510	504	0	1018	38	0	
14	0	0	0	0	510	503	0	1018	38	0	
15	0	0	0	0	508	504	0	1018	39	0	
0	0	0	0	0	510	504	0	1018	38	0	
1	0	0	0	0	509	504	0	1018	38	0	
2	0	0	0	0	513	506	0	1018	38	0	
3	0	0	0	0	511	508	0	1018	38	0	
4	0	0	0	0	516	508	0	1018	38	0	
5	0	0	0	0	508	509	0	1018	38	0	
6	0	0	0	0	508	510	0	1018	38	0	
7	0	0	0	0	502	509	0	1018	39	0	
8	0	0	0	0	503	509	0	1018	38	0	
9	0	0	0	0	508	509	0	1017	38	0	
10	0	0	0	0	510	508	0	1018	38	0	
11	0	0	0	0	509	508	0	1018	38	0	
12	0	0	0	0	506	506	0	1018	38	0	
13	0	0	0	0	509	507	0	1018	38	0	
14	0	0	0	0	512	508	0	1018	38	0	
15	0	0	0	0	503	508	0	1018	39	0	
0	0	0	0	0	512	510	0	1018	38	0	
1	0	0	0	0	513	509	0	1018	38	0	
2	0	0	0	0	511	509	0	1018	38	0	
3	0	0	0	0	506	510	0	1018	38	0	
4	0	0	0	0	506	508	0	1018	38	0	
5	0	0	0	0	513	510	0	1018	38	0	
6	0	0	0	0	513	509	0	1018	38	0	
7	0	0	0	0	508	508	0	1018	39	0	
8	0	0	0	0	505	506	0	1018	38	0	
9	0	0	0	0	506	507	0	1018	38	0	
10	0	0	0	0	508	507	0	1018	38	0	
11	0	0	0	0	510	504	0	1018	38	0	
12	0	0	0	0	512	503	0	1018	38	0	
13	0	0	0	0	513	504	0	1018	38	0	
14	0	0	0	0	506	505	0	766	38	0	
15	0	0	0	0	511	507	0	176	39	0	
0	0	0	0	0	510	504	0	0	38	0	
1	0	0	0	0	515	505	0	0	38	0	
2	0	0	0	0	513	505	0	0	38	0	
3	0	0	0	0	504	506	0	0	38	0	
4	0	0	0	0	506	508	0	0	38	0	
5	0	0	0	0	505	509	0	0	38	0	
6	0	0	0	0	505	507	0	0	38	0	
7	0	0	0	0	499	507	0	0	39	0	
8	0	0	0	0	503	508	0	0	38	0	
9	0	0	0	0	513	508	0	0	38	0	
10	0	0	0	0	515	509	0	0	38	0	
11	0	0	0	0	517	510	0	0	38	0	
12	0	0	0	0	512	510	0	0	38	0	
13	0	0	0	0	508	510	0	0	38	0	
14	0	0	0	0	512	509	0	0	38	0	
15	0	0	0	0	509	509	0	0	39	0	
0	0	0	0	0	509	510	0	0	38	0	
1	0	0	0	0	506	510	0	0	38	0	
2	0	0	0	0	504	511	0	0	38	0	
3	0	0	0	0	506	510	0	118	38	0	
4	0	0	0	0	513	510	0	333	38	0	
5	0	0	0	0	508	509	0	493	38	0	
6	0	0	0	0	509	509	0	606	38	0	
7	0	0	0	0	505	507	0	620	39	0	
8	0	0	0	0	506	506	0	525	38	0	
9	0	0	0	0	505	506	0	182	38	0	
10	0	0	0	0	510	509	0	0	38	0	
11	0	0	0	0	513	508	0	0	38	0	
12	0	0	0	0	507	508	0	0	38	0	
13	0	0	0	0	510	509	0	0	38	0	
14	0	0	0	0	508	511	0	0	38	0	
15	0	0	0	0	510	510	0	0	39	0	
0	0	0	0	0	514	509	0	0	38	0	
1	0	0	0	0	518	508	0	0	38	0	
2	0	0	0	0	515	508	0	0	38	0	
3	0	0	0	0	509	508	0	0	38	0	
4	0	0	0	0	504	506	0	0	38	0	
5	0	0	0	0	505	506	0	0	38	0	
6	0	0	0	0	503	506	0	0	38	0	
7	0	0	0	0	507	507	0	0	39	0	
8	0	0	0	0	510	508	0	0	38	0	
9	0	0	0	0	511	509	0	0	38	0	
10	0	0	0	0	512	510	0	0	38	0	
11	0	0	0	0	510	510	0	0	38	0	
12	0	0	0	0	512	510	0	0	38	0	
13	0	0	0	0	515	509	0	0	38	0	
14	0	0	0	0	512	506	0	0	38	0	
15	0	0	0	0	503	507	0	0	39	0	
0	0	0	0	0	499	506	0	0	38	0	
1	0	0	0	0	504	506	0	0	38	0	
2	0	0	0	0	505	508	0	0	38	0	
3	0	0	0	0	509	506	0	0	38	0	
4	0	0	0	0	514	505	0	0	38	0	
5	0	0	0	0	510	507	0	0	38	0	
6	0	0	0	0	508	507	0	0	38	0	
7	0	0	0	0	510	509	0	0	39	0	
8	0	0	0	0	506	510	0	0	38	0	
9	0	0	0	0	513	510	0	0	38	0	
10	0	0	0	0	513	510	0	0	38	0	
11	0	0	0	0	506	510	0	0	38	0	
12	0	0	0	0	512	509	0	0	38	0	
13	0	0	0	0	513	509	0	0	38	0	
14	0	0	0	0	511	508	0	0	38	0	
15	0	0	0	0	508	507	0	0	39	0	
0	0	0	0	0	505	507	0	0	38	0	
1	0	0	0	0	510	508	0	0	38	0	
2	0	0	0	0	505	508	0	0	38	0	
3	0	0	0	0	504	510	0	0	38	0	
4	0	0	0	0	505	509	0	0	38	0	
5	0	0	0	0	511	510	0	0	38	0	
6	0	0	0	0	511	508	0	0	38	0	
7	0	0	0	0	507	508	0	0	39	0	
8	0	0	0	0	512	507	0	0	38	0	
9	0	0	0	0	514	508	0	0	38	0	
10	0	0	0	0	506	509	0	0	38	0	
11	0	0	0	0	508	509	0	0	38	0	
12	0	0	0	0	508	511	0	0	38	0	
13	0	0	0	0	508	510	0	0	38	0	
14	0	0	0	0	508	511	0	0	38	0	
15	0	0	0	0	509	509	0	0	39	0	
0	0	0	0	0	504	509	0	0	38	0	
1	0	0	0	0	505	508	0	0	38	0	
2	0	0	0	0	510	509	0	0	38	0	
3	0	0	0	0	510	508	0	0	38	0	
4	0	0	0	0	510	508	0	0	38	0	
5	0	0	0	0	511	508	0	0	38	0	
6	0	0	0	0	511	509	0	0	38	0	
7	0	0	0	0	515	508	0	0	39	0	
8	0	0	0	0	512	510	0	0	38	0	
9	0	0	0	0	504	510	0	0	38	0	
10	0	0	0	0	510	508	0	0	38	0	
11	0	0	0	0	514	510	0	221	38	0	
12	0	0	0	0	501	509	0	566	38	0	
13	0	0	0	0	497	507	0	852	38	0	
14	0	0	0	0	505	507	0	1017	38	0	
15	0	0	0	0	513	507	0	1018	39	0	
0	0	0	0	0	516	507	0	1018	38	0	
1	0	0	0	0	508	507	0	1018	38	0	
2	0	0	0	0	510	508	0	1018	38	0	
3	0	0	0	0	508	507	0	1018	38	0	
4	0	0	0	0	512	505	0	1018	38	0	
5	0	0	0	0	509	503	0	1018	38	0	
6	0	0	0	0	512	504	0	1018	38	0	
7	0	0	0	0	509	506	0	1018	39	0	
8	0	0	0	0	513	505	0	1018	38	0	
9	0	0	0	0	512	505	0	1018	38	0	
10	0	0	0	0	514	506	0	1018	38	0	
11	0	0	0	0	511	508	0	1018	38	0	
12	0	0	0	0	503	508	0	883	38	0	
13	0	0	0	0	505	508	0	620	38	0	
14	0	0	0	0	509	509	0	390	38	0	
15	0	0	0	0	507	508	0	189	39	0	
0	0	0	0	0	512	508	0	0	38	0	
1	0	0	0	0	506	508	0	0	38	0	
2	0	0	0	0	509	506	0	0	38	0	
3	0	0	0	0	507	507	0	0	38	0	
4	0	0	0	0	503	507	0	0	38	0	
5	0	0	0	0	505	507	0	0	38	0	
6	0	0	0	0	511	509	0	0	38	0	
7	0	0	0	0	515	511	0	0	39	0	
8	0	0	0	0	513	509	0	0	38	0	
9	0	0	0	0	512	508	0	0	38	0	
10	0	0	0	0	509	507	0	0	38	0	
11	0	0	0	0	507	508	0	0	38	0	
12	0	0	0	0	512	506	0	0	38	0	
13	0	0	0	0	510	505	0	0	38	0	
14	0	0	0	0	505	504	0	0	38	0	
15	0	0	0	0	504	505	0	0	39	0	
0	0	0	0	0	505	504	0	0	38	0	
1	0	0	0	0	507	505	0	0	38	0	
2	0	0	0	0	508	506	0	0	38	0	
3	0	0	0	0	511	506	0	0	38	0	
4	0	0	0	0	510	505	0	0	38	0	
5	0	0	0	0	511	507	0	0	38	0	
6	0	0	0	0	510	507	0	0	38	0	
7	0	0	0	0	511	507	0	0	39	0	
8	0	0	0	0	508	508	0	0	38	0	
9	0	0	0	0	508	507	0	0	38	0	
10	0	0	0	0	510	507	0	0	38	0	
11	0	0	0	0	514	508	0	0	38	0	
12	0	0	0	0	508	508	0	0	38	0	
13	0	0	0	0	504	511	0	0	38	0	
14	0	0	0	0	507	511	0	0	38	0	
15	0	0	0	0	515	509	0	0	39	0	
0	0	0	0	0	515	509	0	0	38	0	
1	0	0	0	0	511	509	0	0	38	0	
2	0	0	0	0	508	510	0	0	38	0	
3	0	0	0	0	502	510	0	0	38	0	
4	0	0	0	0	499	509	0	0	38	0	
5	0	0	0	0	507	509	0	0	38	0	
6	0	0	0	0	508	509	0	0	38	0	
7	0	0	0	0	513	508	0	0	39	0	
8	0	0	0	0	515	508	0	0	38	0	
9	0	0	0	0	513	507	0	0	38	0	
10	0	0	0	0	513	507	0	0	38	0	
11	0	0	0	0	507	508	0	0	38	0	
12	0	0	0	0	509	508	0	0	38	0	
13	0	0	0	0	511	508	0	0	38	0	
14	0	0	0	0	512	506	0	0	38	0	
15	0	0	0	0	505	506	0	0	39	0	
0	0	0	0	0	508	507	0	0	38	0	
1	0	0	0	0	507	506	0	0	38	0	
2	0	0	0	0	508	507	0	124	38	0	
3	0	0	0	0	511	506	0	353	38	0	
4	0	0	0	0	508	507	0	492	38	0	
5	0	0	0	0	508	505	0	629	38	0	
6	0	0	0	0	510	506	0	695	38	0	
7	0	0	0	0	505	507	0	660	39	0	
8	0	0	0	0	503	507	0	638	38	0	
9	0	0	0	0	505	507	0	399	38	0	
10	0	0	0	0	513	507	0	56	38	0	
11	0	0	0	0	517	506	0	0	38	0	
12	0	0	0	0	516	504	0	0	38	0	
13	0	0	0	0	504	504	0	0	38	0	
14	0	0	0	0	506	507	0	0	38	0	
15	0	0	0	0	513	508	0	0	39	0	
0	0	0	0	0	508	510	0	0	38	0	
1	0	0	0	0	506	509	0	0	38	0	
2	0	0	0	0	507	510	0	0	38	0	
3	0	0	0	0	509	508	0	0	38	0	
4	0	0	0	0	512	508	0	0	38	0	
5	0	0	0	0	511	507	0	0	38	0	
6	0	0	0	0	513	507	0	0	38	0	
7	0	0	0	0	512	507	0	0	39	0	
8	0	0	0	0	507	507	0	0	38	0	
9	0	0	0	0	506	508	0	0	38	0	
10	0	0	0	0	507	507	0	0	38	0	
11	0	0	0	0	510	507	0	0	38	0	
12	0	0	0	0	513	506	0	0	38	0	
13	0	0	0	0	519	505	0	0	38	0	
14	0	0	0	0	511	506	0	0	38	0	
15	0	0	0	0	506	505	0	0	39	0	
0	0	0	0	0	498	505	0	0	38	0	
1	0	0	0	0	494	504	0	0	38	0	
2	0	0	0	0	502	503	0	0	38	0	
3	0	0	0	0	509	504	0	0	38	0	
4	0	0	0	0	509	503	0	0	38	0	
5	0	0	0	0	509	504	0	0	38	0	
6	0	0	0	0	511	504	0	0	38	0	
7	0	0	0	0	509	505	0	0	39	0	
8	0	0	0	0	509	504	0	0	38	0	
9	0	0	0	0	512	504	0	129	38	0	
10	0	0	0	0	514	505	0	245	38	0	
11	0	0	0	0	513	505	0	289	38	0	
12	0	0	0	0	514	505	0	330	38	0	
13	0	0	0	0	515	507	0	389	38	0	
14	0	0	0	0	511	507	0	389	38	0	
15	0	0	0	0	511	507	0	369	39	0	
0	0	0	0	0	503	508	0	403	38	0	
1	0	0	0	0	507	508	0	600	38	0	
2	0	0	0	0	512	505	0	815	38	0	
3	0	0	0	0	508	505	0	984	38	0	
4	0	0	0	0	506	505	0	1018	38	0	
5	0	0	0	0	509	507	0	1018	38	0	
6	0	0	0	0	509	507	0	1018	38	0	
7	0	0	0	0	512	508	0	1018	39	0	
8	0	0	0	0	511	508	0	1018	38	0	
9	0	0	0	0	514	509	0	1017	38	0	
10	0	0	0	0	508	508	0	1018	38	0	
11	0	0	0	0	505	508	0	1018	38	0	
12	0	0	0	0	508	508	0	1018	38	0	
13	0	0	0	0	510	509	0	1018	38	0	
14	0	0	0	0	509	508	0	1018	38	0	
15	0	0	0	0	505	509	0	1018	39	0	
0	0	0	0	0	509	508	0	1018	38	0	
1	0	0	0	0	508	507	0	1018	38	0	
2	0	0	0	0	502	506	0	1017	38	0	
3	0	0	0	0	508	506	0	863	38	0	
4	0	0	0	0	512	508	0	795	38	0	
5	0	0	0	0	512	509	0	813	38	0	
6	0	0	0	0	512	509	0	920	38	0	
7	0	0	0	0	508	509	0	1004	39	0	
8	0	0	0	0	508	510	0	1015	38	0	
9	0	0	0	0	512	512	0	1018	38	0	
10	0	0	0	0	512	513	0	1017	38	0	
11	0	0	0	0	511	511	0	1017	38	0	
12	0	0	0	0	509	510	0	900	38	0	
13	0	0	0	0	508	510	0	659	38	0	
14	0	0	0	0	503	511	0	344	38	0	
15	0	0	0	0	498	510	0	126	39	0	
0	0	0	0	0	506	508	0	0	38	0	
1	0	0	0	0	505	508	0	0	38	0	
2	0	0	0	0	511	511	0	0	38	0	
3	0	0	0	0	511	509	0	0	38	0	
4	0	0	0	0	512	512	0	0	38	0	
5	0	0	0	0	512	512	0	0	38	0	
6	0	0	0	0	511	512	0	0	38	0	
7	0	0	0	0	514	511	0	0	39	0	
8	0	0	0	0	512	511	0	244	38	0	
9	0	0	0	0	511	511	0	415	38	0	
10	0	0	0	0	511	510	0	548	38	0	
11	0	0	0	0	511	509	0	732	38	0	
12	0	0	0	0	510	508	0	839	38	0	
13	0	0	0	0	506	508	0	890	38	0	
14	0	0	0	0	507	507	0	892	38	0	
15	0	0	0	0	505	507	0	968	39	0	
0	0	0	0	0	508	507	0	1017	38	0	
1	0	0	0	0	508	506	0	1017	38	0	
2	0	0	0	0	508	506	0	1018	38	0	
3	0	0	0	0	512	507	0	1017	38	0	
4	0	0	0	0	511	508	0	940	38	0	
5	0	0	0	0	505	508	0	663	38	0	
6	0	0	0	0	509	507	0	470	38	0	
7	0	0	0	0	509	508	0	320	39	0	
8	0	0	0	0	512	508	0	289	38	0	
9	0	0	0	0	511	508	0	264	38	0	
10	0	0	0	0	508	510	0	282	38	0	
11	0	0	0	0	499	509	0	376	38	0	
12	0	0	0	0	499	510	0	591	38	0	
13	0	0	0	0	512	510	0	856	38	0	
14	0	0	0	0	517	510	0	1018	38	0	
15	0	0	0	0	514	510	0	1018	39	0	
0	0	0	0	0	511	509	0	1018	38	0	
1	0	0	0	0	508	509	0	1018	38	0	
2	0	0	0	0	506	508	0	1018	38	0	
3	0	0	0	0	509	508	0	1018	38	0	
4	0	0	0	0	511	508	0	1018	38	0	
5	0	0	0	0	511	507	0	1018	38	0	
6	0	0	0	0	506	508	0	1018	38	0	
7	0	0	0	0	507	509	0	1018	39	0	
8	0	0	0	0	507	508	0	1018	38	0	
9	0	0	0	0	511	509	0	1018	38	0	
10	0	0	0	0	515	509	0	1017	38	0	
11	0	0	0	0	514	508	0	1018	38	0	
12	0	0	0	0	512	509	0	1018	38	0	
13	0	0	0	0	513	509	0	1018	38	0	
14	0	0	0	0	508	509	0	1018	38	0	
15	0	0	0	0	509	507	0	1018	39	0	
0	0	0	0	0	513	507	0	1018	38	0	
1	0	0	0	0	501	508	0	1018	38	0	
2	0	0	0	0	507	507	0	1018	38	0	
3	0	0	0	0	513	507	0	1018	38	0	
4	0	0	0	0	508	508	0	1018	38	0	
5	0	0	0	0	504	507	0	1018	38	0	
6	0	0	0	0	507	510	0	1018	38	0	
7	0	0	0	0	510	509	0	1018	39	0	
8	0	0	0	0	506	512	0	1018	38	0	
9	0	0	0	0	513	510	0	1017	38	0	
10	0	0	0	0	508	509	0	1018	38	0	
11	0	0	0	0	507	510	0	1018	38	0	
12	0	0	0	0	510	509	0	1018	38	0	
13	0	0	0	0	508	509	0	1018	38	0	
14	0	0	0	0	513	509	0	1018	38	0	
15	0	0	0	0	514	507	0	1018	39	0	
0	0	0	0	0	512	507	0	1018	38	0	
1	0	0	0	0	504	507	0	1018	38	0	
2	0	0	0	0	499	507	0	1018	38	0	
3	0	0	0	0	506	506	0	1018	38	0	
4	0	0	0	0	511	507	0	1018	38	0	
5	0	0	0	0	517	508	0	1018	38	0	
6	0	0	0	0	519	508	0	1018	38	0	
7	0	0	0	0	503	507	0	1018	39	0	
8	0	0	0	0	495	508	0	1018	38	0	
9	0	0	0	0	502	507	0	1018	38	0	
10	0	0	0	0	511	507	0	1018	38	0	
11	0	0	0	0	514	506	0	1018	38	0	
12	0	0	0	0	511	507	0	1018	38	0	
13	0	0	0	0	511	505	0	1018	38	0	
14	0	0	0	0	506	506	0	1018	38	0	
15	0	0	0	0	512	507	0	1018	39	0	
0	0	0	0	0	512	507	0	1018	38	0	
1	0	0	0	0	511	509	0	1018	38	0	
2	0	0	0	0	512	509	0	1018	38	0	
3	0	0	0	0	513	511	0	1018	38	0	
4	0	0	0	0	508	511	0	1018	38	0	
5	0	0	0	0	502	509	0	1018	38	0	
6	0	0	0	0	510	508	0	1018	38	0	
7	0	0	0	0	509	508	0	1018	39	0	
8	0	0	0	0	508	508	0	1018	38	0	
9	0	0	0	0	510	508	0	1018	38	0	
10	0	0	0	0	507	508	0	1018	38	0	
11	0	0	0	0	511	509	0	1018	38	0	
12	0	0	0	0	513	509	0	1018	38	0	
13	0	0	0	0	510	508	0	1018	38	0	
14	0	0	0	0	511	509	0	1018	38	0	
15	0	0	0	0	506	508	0	1018	39	0	
0	0	0	0	0	511	507	0	1018	38	0	
1	0	0	0	0	511	508	0	1018	38	0	
2	0	0	0	0	506	507	0	1018	38	0	
3	0	0	0	0	509	508	0	1018	38	0	
4	0	0	0	0	511	510	0	1018	38	0	
5	0	0	0	0	515	509	0	1018	38	0	
6	0	0	0	0	512	508	0	1018	38	0	
7	0	0	0	0	508	508	0	1018	39	0	
8	0	0	0	0	509	508	0	1018	38	0	
9	0	0	0	0	509	508	0	1018	38	0	
10	0	0	0	0	511	510	0	1018	38	0	
11	0	0	0	0	507	511	0	1018	38	0	
12	0	0	0	0	507	511	0	1018	38	0	
13	0	0	0	0	505	512	0	1018	38	0	
14	0	0	0	0	506	511	0	1018	38	0	
15	0	0	0	0	505	511	0	1018	39	0	
0	0	0	0	0	509	510	0	1018	38	0	
1	0	0	0	0	506	509	0	1018	38	0	
2	0	0	0	0	510	509	0	1018	38	0	
3	0	0	0	0	511	508	0	1018	38	0	
4	0	0	0	0	515	508	0	1018	38	0	
5	0	0	0	0	513	508	0	1018	38	0	
6	0	0	0	0	505	507	0	1018	38	0	
7	0	0	0	0	512	508	0	1018	39	0	
8	0	0	0	0	513	507	0	1018	38	0	
9	0	0	0	0	510	506	0	1018	38	0	
10	0	0	0	0	509	506	0	1018	38	0	
11	0	0	0	0	505	506	0	1018	38	0	
12	0	0	0	0	511	506	0	1018	38	0	
13	0	0	0	0	511	504	0	1018	38	0	
14	0	0	0	0	513	506	0	1018	38	0	
15	0	0	0	0	510	505	0	1018	39	0	
0	0	0	0	0	507	505	0	1018	38	0	
1	0	0	0	0	504	507	0	1018	38	0	
2	0	0	0	0	502	507	0	1018	38	0	
3	0	0	0	0	501	507	0	1018	38	0	
4	0	0	0	0	507	507	0	1018	38	0	
5	0	0	0	0	512	507	0	1018	38	0	
6	0	0	0	0	514	506	0	1018	38	0	
7	0	0	0	0	513	505	0	1018	39	0	
8	0	0	0	0	512	505	0	1018	38	0	
9	0	0	0	0	514	507	0	1018	38	0	
10	0	0	0	0	511	508	0	1018	38	0	
11	0	0	0	0	505	507	0	1018	38	0	
12	0	0	0	0	507	508	0	1018	38	0	
13	0	0	0	0	500	505	0	1018	38	0	
14	0	0	0	0	502	506	0	1018	38	0	
15	0	0	0	0	511	505	0	1018	39	0	
0	0	0	0	0	515	505	0	1018	38	0	
1	0	0	0	0	516	507	0	1018	38	0	
2	0	0	0	0	517	506	0	1018	38	0	
3	0	0	0	0	515	508	0	1018	38	0	
4	0	0	0	0	505	508	0	1018	38	0	
5	0	0	0	0	504	508	0	1018	38	0	
6	0	0	0	0	512	508	0	1018	38	0	
7	0	0	0	0	511	507	0	1018	39	0	
8	0	0	0	0	512	508	0	1018	38	0	
9	0	0	0	0	509	509	0	1018	38	0	
10	0	0	0	0	505	509	0	1018	38	0	
11	0	0	0	0	509	510	0	1018	38	0	
12	0	0	0	0	511	510	0	1018	38	0	
13	0	0	0	0	509	509	0	1018	38	0	
14	0	0	0	0	508	509	0	1018	38	0	
15	0	0	0	0	510	508	0	1018	39	0	
0	0	0	0	0	513	507	0	1018	38	0	
1	0	0	0	0	514	506	0	1018	38	0	
2	0	0	0	0	513	505	0	1018	38	0	
3	0	0	0	0	500	507	0	1018	38	0	
4	0	0	0	0	496	509	0	1018	38	0	
5	0	0	0	0	505	508	0	1018	38	0	
6	0	0	0	0	511	508	0	1018	38	0	
7	0	0	0	0	512	507	0	1018	39	0	
8	0	0	0	0	511	508	0	1018	38	0	
9	0	0	0	0	506	507	0	1018	38	0	
10	0	0	0	0	509	507	0	1018	38	0	
11	0	0	0	0	515	509	0	1018	38	0	
12	0	0	0	0	515	508	0	1018	38	0	
13	0	0	0	0	509	508	0	1018	38	0	
14	0	0	0	0	505	509	0	1018	38	0	
15	0	0	0	0	503	511	0	1018	39	0	
0	0	0	0	0	504	508	0	1018	38	0	
1	0	0	0	0	505	508	0	1018	38	0	
2	0	0	0	0	512	507	0	1018	38	0	
3	0	0	0	0	510	508	0	1018	38	0	
4	0	0	0	0	508	507	0	1018	38	0	
5	0	0	0	0	508	507	0	1018	38	0	
6	0	0	0	0	513	507	0	1018	38	0	
7	0	0	0	0	511	508	0	1018	39	0	
8	0	0	0	0	509	507	0	1018	38	0	
9	0	0	0	0	512	507	0	1018	38	0	
10	0	0	0	0	512	508	0	1018	38	0	
11	0	0	0	0	513	508	0	1018	38	0	
12	0	0	0	0	508	507	0	1018	38	0	
13	0	0	0	0	495	509	0	1018	38	0	
14	0	0	0	0	505	509	0	1018	38	0	
15	0	0	0	0	515	508	0	1018	39	0	
0	0	0	0	0	513	508	0	953	38	0	
1	0	0	0	0	511	508	0	886	38	0	
2	0	0	0	0	515	508	0	828	38	0	
3	0	0	0	0	513	508	0	765	38	0	
4	0	0	0	0	505	509	0	756	38	0	
5	0	0	0	0	507	510	0	897	38	0	
6	0	0	0	0	505	510	0	859	38	0	
7	0	0	0	0	506	508	0	900	39	0	
8	0	0	0	0	505	505	0	888	38	0	
9	0	0	0	0	508	504	0	779	38	0	
10	0	0	0	0	507	507	0	649	38	0	
11	0	0	0	0	509	507	0	529	38	0	
12	0	0	0	0	508	507	0	471	38	0	
13	0	0	0	0	513	508	0	487	38	0	
14	0	0	0	0	513	507	0	537	38	0	
15	0	0	0	0	516	507	0	628	39	0	
0	0	0	0	0	517	508	0	819	38	0	
1	0	0	0	0	513	507	0	1018	38	0	
2	0	0	0	0	511	504	0	1018	38	0	
3	0	0	0	0	509	505	0	1018	38	0	
4	0	0	0	0	506	504	0	1018	38	0	
5	0	0	0	0	500	505	0	1018	38	0	
6	0	0	0	0	501	507	0	1018	38	0	
7	0	0	0	0	503	508	0	1018	39	0	
8	0	0	0	0	508	509	0	1018	38	0	
9	0	0	0	0	514	509	0	1018	38	0	
10	0	0	0	0	515	508	0	1018	38	0	
11	0	0	0	0	512	507	0	1017	38	0	
12	0	0	0	0	511	507	0	766	38	0	
13	0	0	0	0	508	508	0	589	38	0	
14	0	0	0	0	512	505	0	500	38	0	
15	0	0	0	0	510	505	0	198	39	0	
0	0	0	0	0	508	508	0	0	38	0	
1	0	0	0	0	508	508	0	0	38	0	
2	0	0	0	0	509	506	0	0	38	0	
3	0	0	0	0	505	505	0	0	38	0	
4	0	0	0	0	504	505	0	0	38	0	
5	0	0	0	0	506	507	0	0	38	0	
6	0	0	0	0	509	507	0	0	38	0	
7	0	0	0	0	502	508	0	0	39	0	
8	0	0	0	0	507	509	0	0	38	0	
9	0	0	0	0	515	508	0	0	38	0	
10	0	0	0	0	513	508	0	0	38	0	
11	0	0	0	0	508	507	0	0	38	0	
12	0	0	0	0	509	508	0	0	38	0	
13	0	0	0	0	510	509	0	0	38	0	
14	0	0	0	0	510	509	0	0	38	0	
15	0	0	0	0	514	508	0	0	39	0	
0	0	0	0	0	510	506	0	0	38	0	
1	0	0	0	0	504	506	0	0	38	0	
2	0	0	0	0	505	507	0	0	38	0	
3	0	0	0	0	511	507	0	0	38	0	
4	0	0	0	0	509	507	0	0	38	0	
5	0	0	0	0	510	505	0	0	38	0	
6	0	0	0	0	508	504	0	0	38	0	
7	0	0	0	0	508	505	0	0	39	0	
8	0	0	0	0	505	504	0	0	38	0	
9	0	0	0	0	510	505	0	0	38	0	
10	0	0	0	0	512	505	0	0	38	0	
11	0	0	0	0	509	506	0	0	38	0	
12	0	0	0	0	514	507	0	0	38	0	
13	0	0	0	0	512	506	0	0	38	0	
14	0	0	0	0	513	508	0	0	38	0	
15	0	0	0	0	511	509	0	0	39	0	
0	0	0	0	0	503	508	0	0	38	0	
1	0	0	0	0	496	508	0	0	38	0	
2	0	0	0	0	502	510	0	0	38	0	
3	0	0	0	0	506	508	0	0	38	0	
4	0	0	0	0	507	507	0	0	38	0	
5	0	0	0	0	508	505	0	0	38	0	
6	0	0	0	0	504	506	0	0	38	0	
7	0	0	0	0	508	506	0	0	39	0	
8	0	0	0	0	514	505	0	0	38	0	
9	0	0	0	0	514	505	0	0	38	0	
10	0	0	0	0	515	505	0	0	38	0	
11	0	0	0	0	508	505	0	0	38	0	
12	0	0	0	0	502	506	0	0	38	0	
13	0	0	0	0	511	506	0	0	38	0	
14	0	0	0	0	512	508	0	0	38	0	
15	0	0	0	0	515	508	0	0	39	0	
0	0	0	0	0	512	509	0	0	38	0	
1	0	0	0	0	508	510	0	0	38	0	
2	0	0	0	0	500	508	0	0	38	0	
3	0	0	0	0	507	508	0	0	38	0	
4	0	0	0	0	514	509	0	0	38	0	
5	0	0	0	0	516	509	0	0	38	0	
6	0	0	0	0	510	510	0	0	38	0	
7	0	0	0	0	512	510	0	0	39	0	
8	0	0	0	0	504	510	0	0	38	0	
9	0	0	0	0	505	510	0	0	38	0	
10	0	0	0	0	508	510	0	0	38	0	
11	0	0	0	0	505	509	0	0	38	0	
12	0	0	0	0	514	508	0	0	38	0	
13	0	0	0	0	512	510	0	0	38	0	
14	0	0	0	0	510	510	0	0	38	0	
15	0	0	0	0	506	508	0	0	39	0	
0	0	0	0	0	500	509	0	0	38	0	
1	0	0	0	0	510	510	0	0	38	0	
2	0	0	0	0	510	511	0	0	38	0	
3	0	0	0	0	511	510	0	0	38	0	
4	0	0	0	0	508	510	0	0	38	0	
5	0	0	0	0	508	510	0	0	38	0	
6	0	0	0	0	509	509	0	0	38	0	
7	0	0	0	0	508	509	0	0	39	0	
8	0	0	0	0	507	511	0	0	38	0	
9	0	0	0	0	511	511	0	0	38	0	
10	0	0	0	0	510	512	0	0	38	0	
11	0	0	0	0	513	512	0	0	38	0	
12	0	0	0	0	514	510	0	0	38	0	
13	0	0	0	0	513	509	0	0	38	0	
14	0	0	0	0	503	509	0	0	38	0	
15	0	0	0	0	501	509	0	0	39	0	
0	0	0	0	0	507	510	0	0	38	0	
1	0	0	0	0	507	509	0	0	38	0	
2	0	0	0	0	510	510	0	0	38	0	
3	0	0	0	0	513	508	0	0	38	0	
4	0	0	0	0	511	510	0	0	38	0	
5	0	0	0	0	504	511	0	0	38	0	
6	0	0	0	0	504	509	0	0	38	0	
7	0	0	0	0	512	507	0	0	39	0	
8	0	0	0	0	512	508	0	0	38	0	
9	0	0	0	0	512	508	0	0	38	0	
10	0	0	0	0	514	509	0	0	38	0	
11	0	0	0	0	506	508	0	0	38	0	
12	0	0	0	0	493	509	0	0	38	0	
13	0	0	0	0	507	510	0	0	38	0	
14	0	0	0	0	514	510	0	0	38	0	
15	0	0	0	0	519	510	0	0	39	0	
0	0	0	0	0	514	508	0	0	38	0	
1	0	0	0	0	504	507	0	0	38	0	
2	0	0	0	0	500	509	0	0	38	0	
3	0	0	0	0	502	510	0	0	38	0	
4	0	0	0	0	504	510	0	0	38	0	
5	0	0	0	0	507	510	0	0	38	0	
6	0	0	0	0	512	509	0	0	38	0	
7	0	0	0	0	516	508	0	0	39	0	
8	0	0	0	0	513	508	0	0	38	0	
9	0	0	0	0	511	508	0	0	38	0	
10	0	0	0	0	509	509	0	0	38	0	
11	0	0	0	0	509	508	0	0	38	0	
12	0	0	0	0	515	510	0	0	38	0	
13	0	0	0	0	508	509	0	0	38	0	
14	0	0	0	0	510	507	0	0	38	0	
15	0	0	0	0	508	506	0	0	39	0	
0	0	0	0	0	508	505	0	0	38	0	
1	0	0	0	0	508	504	0	0	38	0	
2	0	0	0	0	504	505	0	0	38	0	
3	0	0	0	0	503	505	0	0	38	0	
4	0	0	0	0	501	505	0	0	38	0	
5	0	0	0	0	507	505	0	0	38	0	
6	0	0	0	0	505	506	0	0	38	0	
7	0	0	0	0	509	507	0	0	39	0	
8	0	0	0	0	516	507	0	0	38	0	
9	0	0	0	0	513	507	0	0	38	0	
10	0	0	0	0	511	508	0	0	38	0	
11	0	0	0	0	506	508	0	0	38	0	
12	0	0	0	0	509	507	0	0	38	0	
13	0	0	0	0	510	508	0	0	38	0	
14	0	0	0	0	510	510	0	0	38	0	
15	0	0	0	0	513	507	0	0	39	0	
0	0	0	0	0	513	507	0	0	38	0	
1	0	0	0	0	505	506	0	0	38	0	
2	0	0	0	0	505	507	0	0	38	0	
3	0	0	0	0	507	506	0	0	38	0	
4	0	0	0	0	509	505	0	0	38	0	
5	0	0	0	0	512	504	0	0	38	0	
6	0	0	0	0	509	506	0	0	38	0	
7	0	0	0	0	512	507	0	0	39	0	
8	0	0	0	0	515	509	0	0	38	0	
9	0	0	0	0	513	507	0	0	38	0	
10	0	0	0	0	508	507	0	0	38	0	
11	0	0	0	0	508	508	0	0	38	0	
12	0	0	0	0	504	507	0	0	38	0	
13	0	0	0	0	504	507	0	0	38	0	
14	0	0	0	0	508	505	0	0	38	0	
15	0	0	0	0	513	507	0	0	39	0	
0	0	0	0	0	511	507	0	0	38	0	
1	0	0	0	0	510	506	0	0	38	0	
2	0	0	0	0	511	507	0	0	38	0	
3	0	0	0	0	511	506	0	0	38	0	
4	0	0	0	0	510	507	0	0	38	0	
5	0	0	0	0	509	510	0	0	38	0	
6	0	0	0	0	508	507	0	0	38	0	
7	0	0	0	0	508	508	0	0	39	0	
8	0	0	0	0	511	509	0	0	38	0	
9	0	0	0	0	506	509	0	0	38	0	
10	0	0	0	0	504	510	0	0	38	0	
11	0	0	0	0	504	506	0	0	38	0	
12	0	0	0	0	507	505	0	0	38	0	
13	0	0	0	0	509	506	0	0	38	0	
14	0	0	0	0	511	505	0	0	38	0	
15	0	0	0	0	511	505	0	0	39	0	
0	0	0	0	0	511	507	0	0	38	0	
1	0	0	0	0	510	505	0	0	38	0	
2	0	0	0	0	508	506	0	0	38	0	
3	0	0	0	0	513	506	0	0	38	0	
4	0	0	0	0	516	508	0	0	38	0	
5	0	0	0	0	520	509	0	0	38	0	
6	0	0	0	0	516	507	0	0	38	0	
7	0	0	0	0	507	505	0	0	39	0	
8	0	0	0	0	503	505	0	0	38	0	
9	0	0	0	0	499	505	0	0	38	0	
10	0	0	0	0	501	504	0	0	38	0	
11	0	0	0	0	506	502	0	0	38	0	
12	0	0	0	0	502	501	0	0	38	0	
13	0	0	0	0	505	503	0	0	38	0	
14	0	0	0	0	513	504	0	0	38	0	
15	0	0	0	0	511	505	0	0	39	0	
0	0	0	0	0	499	505	0	0	38	0	
1	0	0	0	0	504	506	0	0	38	0	
2	0	0	0	0	511	505	0	0	38	0	
3	0	0	0	0	513	505	0	0	38	0	
4	0	0	0	0	510	505	0	0	38	0	
5	0	0	0	0	514	506	0	0	38	0	
6	0	0	0	0	513	507	0	0	38	0	
7	0	0	0	0	506	507	0	0	39	0	
8	0	0	0	0	504	507	0	0	38	0	
9	0	0	0	0	510	507	0	0	38	0	
10	0	0	0	0	513	505	0	0	38	0	
11	0	0	0	0	513	507	0	0	38	0	
12	0	0	0	0	513	506	0	0	38	0	
13	0	0	0	0	508	506	0	0	38	0	
14	0	0	0	0	508	505	0	0	38	0	
15	0	0	0	0	511	504	0	0	39	0	
0	0	0	0	0	515	504	0	0	38	0	
1	0	0	0	0	511	505	0	0	38	0	
2	0	0	0	0	507	507	0	0	38	0	
3	0	0	0	0	506	508	0	0	38	0	
4	0	0	0	0	502	505	0	0	38	0	
5	0	0	0	0	499	504	0	0	38	0	
6	0	0	0	0	508	506	0	0	38	0	
7	0	0	0	0	513	507	0	0	39	0	
8	0	0	0	0	512	508	0	0	38	0	
9	0	0	0	0	510	509	0	0	38	0	
10	0	0	0	0	513	509	0	0	38	0	
11	0	0	0	0	515	508	0	0	38	0	
12	0	0	0	0	509	507	0	0	38	0	
13	0	0	0	0	511	507	0	0	38	0	
14	0	0	0	0	513	508	0	0	38	0	
15	0	0	0	0	508	509	0	0	39	0	
0	0	0	0	0	508	510	0	290	38	0	
1	0	0	0	0	512	509	0	677	38	0	
2	0	0	0	0	513	508	0	1017	38	0	
3	0	0	0	0	511	507	0	1018	38	0	
4	0	0	0	0	507	507	0	1018	38	0	
5	0	0	0	0	505	508	0	1018	38	0	
6	0	0	0	0	499	508	0	1018	38	0	
7	0	0	0	0	495	509	0	1018	39	0	
8	0	0	0	0	503	508	0	1018	38	0	
9	0	0	0	0	514	508	0	1018	38	0	
10	0	0	0	0	519	510	0	1018	38	0	
11	0	0	0	0	512	511	0	898	38	0	
12	0	0	0	0	508	509	0	850	38	0	
13	0	0	0	0	509	507	0	833	38	0	
14	0	0	0	0	506	507	0	920	38	0	
15	0	0	0	0	505	506	0	1018	39	0	
0	0	0	0	0	511	507	0	1018	38	0	
1	0	0	0	0	511	507	0	1018	38	0	
2	0	0	0	0	506	506	0	1018	38	0	
3	0	0	0	0	507	507	0	1018	38	0	
4	0	0	0	0	509	507	0	1018	38	0	
5	0	0	0	0	508	507	0	1018	38	0	
6	0	0	0	0	510	507	0	1018	38	0	
7	0	0	0	0	514	507	0	1018	39	0	
8	0	0	0	0	512	506	0	1018	38	0	
9	0	0	0	0	515	506	0	1017	38	0	
10	0	0	0	0	508	506	0	1018	38	0	
11	0	0	0	0	509	507	0	673	38	0	
12	0	0	0	0	512	504	0	483	38	0	
13	0	0	0	0	512	505	0	282	38	0	
14	0	0	0	0	510	505	0	18	38	0	
15	0	0	0	0	508	504	0	0	39	0	
0	0	0	0	0	508	506	0	0	38	0	
1	0	0	0	0	508	506	0	0	38	0	
2	0	0	0	0	508	508	0	0	38	0	
3	0	0	0	0	506	508	0	0	38	0	
4	0	0	0	0	498	508	0	0	38	0	
5	0	0	0	0	504	508	0	0	38	0	
6	0	0	0	0	510	510	0	179	38	0	
7	0	0	0	0	511	510	0	277	39	0	
8	0	0	0	0	519	509	0	350	38	0	
9	0	0	0	0	513	509	0	500	38	0	
10	0	0	0	0	499	510	0	563	38	0	
11	0	0	0	0	497	510	0	620	38	0	
12	0	0	0	0	502	509	0	644	38	0	
13	0	0	0	0	507	508	0	659	38	0	
14	0	0	0	0	507	507	0	716	38	0	
15	0	0	0	0	513	509	0	938	39	0	
0	0	0	0	0	517	509	0	1018	38	0	
1	0	0	0	0	516	508	0	1018	38	0	
2	0	0	0	0	510	507	0	1018	38	0	
3	0	0	0	0	509	508	0	1018	38	0	
4	0	0	0	0	514	508	0	1018	38	0	
5	0	0	0	0	517	508	0	1018	38	0	
6	0	0	0	0	513	507	0	1018	38	0	
7	0	0	0	0	512	508	0	1018	39	0	
8	0	0	0	0	506	508	0	1018	38	0	
9	0	0	0	0	505	508	0	1018	38	0	
10	0	0	0	0	506	508	0	1018	38	0	
11	0	0	0	0	513	509	0	1018	38	0	
12	0	0	0	0	509	508	0	1018	38	0	
13	0	0	0	0	504	510	0	1018	38	0	
14	0	0	0	0	506	508	0	1018	38	0	
15	0	0	0	0	507	507	0	1018	39	0	
0	0	0	0	0	510	507	0	1018	38	0	
1	0	0	0	0	512	507	0	1018	38	0	
2	0	0	0	0	513	507	0	1018	38	0	
3	0	0	0	0	511	508	0	1018	38	0	
4	0	0	0	0	510	508	0	1018	38	0	
5	0	0	0	0	509	507	0	1018	38	0	
6	0	0	0	0	508	507	0	1018	38	0	
7	0	0	0	0	504	507	0	1018	39	0	
8	0	0	0	0	509	506	0	1018	38	0	
9	0	0	0	0	510	505	0	1018	38	0	
10	0	0	0	0	510	505	0	1018	38	0	
11	0	0	0	0	506	505	0	1018	38	0	
12	0	0	0	0	505	506	0	1018	38	0	
13	0	0	0	0	512	508	0	1018	38	0	
14	0	0	0	0	509	508	0	1018	38	0	
15	0	0	0	0	508	510	0	1018	39	0	
0	0	0	0	0	510	510	0	1018	38	0	
1	0	0	0	0	511	509	0	1018	38	0	
2	0	0	0	0	513	509	0	1018	38	0	
3	0	0	0	0	508	508	0	1018	38	0	
4	0	0	0	0	509	508	0	1018	38	0	
5	0	0	0	0	511	509	0	1018	38	0	
6	0	0	0	0	505	507	0	1018	38	0	
7	0	0	0	0	509	505	0	1018	39	0	
8	0	0	0	0	509	506	0	1018	38	0	
9	0	0	0	0	508	507	0	1018	38	0	
10	0	0	0	0	511	505	0	1018	38	0	
11	0	0	0	0	510	507	0	1018	38	0	
12	0	0	0	0	512	507	0	1018	38	0	
13	0	0	0	0	509	508	0	1018	38	0	
14	0	0	0	0	508	508	0	1018	38	0	
15	0	0	0	0	514	509	0	1018	39	0	
0	0	0	0	0	507	507	0	1018	38	0	
1	0	0	0	0	505	507	0	1018	38	0	
2	0	0	0	0	511	507	0	1018	38	0	
3	0	0	0	0	504	509	0	1018	38	0	
4	0	0	0	0	506	510	0	1018	38	0	
5	0	0	0	0	515	509	0	1018	38	0	
6	0	0	0	0	509	508	0	1017	38	0	
7	0	0	0	0	500	508	0	1018	39	0	
8	0	0	0	0	508	507	0	1018	38	0	
9	0	0	0	0	511	508	0	1018	38	0	
10	0	0	0	0	510	507	0	1018	38	0	
11	0	0	0	0	511	507	0	1018	38	0	
12	0	0	0	0	507	506	0	1018	38	0	
13	0	0	0	0	508	506	0	1018	38	0	
14	0	0	0	0	516	505	0	872	38	0	
15	0	0	0	0	512	506	0	528	39	0	
0	0	0	0	0	511	506	0	96	38	0	
1	0	0	0	0	503	507	0	0	38	0	
2	0	0	0	0	512	506	0	0	38	0	
3	0	0	0	0	515	507	0	0	38	0	
4	0	0	0	0	511	507	0	0	38	0	
5	0	0	0	0	511	507	0	0	38	0	
6	0	0	0	0	507	507	0	0	38	0	
7	0	0	0	0	509	508	0	0	39	0	
8	0	0	0	0	512	511	0	0	38	0	
9	0	0	0	0	511	511	0	0	38	0	
10	0	0	0	0	507	511	0	0	38	0	
11	0	0	0	0	509	510	0	0	38	0	
12	0	0	0	0	502	510	0	0	38	0	
13	0	0	0	0	507	510	0	0	38	0	
14	0	0	0	0	506	508	0	0	38	0	
15	0	0	0	0	510	509	0	0	39	0	
0	0	0	0	0	509	507	0	0	38	0	
1	0	0	0	0	511	505	0	0	38	0	
2	0	0	0	0	511	505	0	0	38	0	
3	0	0	0	0	510	504	0	0	38	0	
4	0	0	0	0	508	506	0	0	38	0	
5	0	0	0	0	509	508	0	0	38	0	
6	0	0	0	0	508	508	0	0	38	0	
7	0	0	0	0	508	508	0	0	39	0	
8	0	0	0	0	506	508	0	0	38	0	
9	0	0	0	0	509	510	0	0	38	0	
10	0	0	0	0	513	509	0	0	38	0	
11	0	0	0	0	507	510	0	0	38	0	
12	0	0	0	0	506	511	0	0	38	0	
13	0	0	0	0	506	510	0	0	38	0	
14	0	0	0	0	509	510	0	0	38	0	
15	0	0	0	0	509	512	0	0	39	0	
0	0	0	0	0	510	512	0	0	38	0	
1	0	0	0	0	511	511	0	0	38	0	
2	0	0	0	0	513	511	0	0	38	0	
3	0	0	0	0	508	508	0	0	38	0	
4	0	0	0	0	502	508	0	0	38	0	
5	0	0	0	0	504	507	0	0	38	0	
6	0	0	0	0	510	507	0	0	38	0	
7	0	0	0	0	505	510	0	0	39	0	
8	0	0	0	0	511	507	0	0	38	0	
9	0	0	0	0	513	507	0	0	38	0	
10	0	0	0	0	511	506	0	0	38	0	
11	0	0	0	0	508	506	0	0	38	0	
12	0	0	0	0	499	506	0	0	38	0	
13	0	0	0	0	508	507	0	0	38	0	
14	0	0	0	0	512	507	0	0	38	0	
15	0	0	0	0	510	510	0	0	39	0	
0	0	0	0	0	510	508	0	0	38	0	
1	0	0	0	0	511	508	0	0	38	0	
2	0	0	0	0	515	509	0	0	38	0	
3	0	0	0	0	514	508	0	0	38	0	
4	0	0	0	0	509	507	0	0	38	0	
5	0	0	0	0	508	506	0	0	38	0	
6	0	0	0	0	503	507	0	0	38	0	
7	0	0	0	0	504	508	0	0	39	0	
8	0	0	0	0	509	508	0	0	38	0	
9	0	0	0	0	511	508	0	340	38	0	
10	0	0	0	0	505	507	0	668	38	0	
11	0	0	0	0	509	507	0	878	38	0	
12	0	0	0	0	513	508	0	1017	38	0	
13	0	0	0	0	516	508	0	1018	38	0	
14	0	0	0	0	513	507	0	1018	38	0	
15	0	0	0	0	512	508	0	1018	39	0	
0	0	0	0	0	504	509	0	1018	38	0	
1	0	0	0	0	510	509	0	1017	38	0	
2	0	0	0	0	512	507	0	884	38	0	
3	0	0	0	0	513	508	0	697	38	0	
4	0	0	0	0	511	509	0	575	38	0	
5	0	0	0	0	510	509	0	503	38	0	
6	0	0	0	0	503	508	0	509	38	0	
7	0	0	0	0	503	506	0	523	39	0	
8	0	0	0	0	508	508	0	541	38	0	
9	0	0	0	0	509	508	0	584	38	0	
10	0	0	0	0	510	509	0	477	38	0	
11	0	0	0	0	511	508	0	289	38	0	
12	0	0	0	0	508	507	0	34	38	0	
13	0	0	0	0	505	507	0	0	38	0	
14	0	0	0	0	503	507	0	0	38	0	
15	0	0	0	0	499	509	0	0	39	0	
0	0	0	0	0	507	510	0	0	38	0	
1	0	0	0	0	512	509	0	0	38	0	
2	0	0	0	0	512	507	0	0	38	0	
3	0	0	0	0	511	504	0	0	38	0	
4	0	0	0	0	510	505	0	0	38	0	
5	0	0	0	0	512	506	0	0	38	0	
6	0	0	0	0	510	508	0	0	38	0	
7	0	0	0	0	512	508	0	299	39	0	
8	0	0	0	0	516	510	0	516	38	0	
9	0	0	0	0	511	509	0	813	38	0	
10	0	0	0	0	508	509	0	1017	38	0	
11	0	0	0	0	517	508	0	1018	38	0	
12	0	0	0	0	516	507	0	1018	38	0	
13	0	0	0	0	516	508	0	1018	38	0	
14	0	0	0	0	506	510	0	1018	38	0	
15	0	0	0	0	496	511	0	1018	39	0	
0	0	0	0	0	499	510	0	1018	38	0	
1	0	0	0	0	506	509	0	1018	38	0	
2	0	0	0	0	508	509	0	1018	38	0	
3	0	0	0	0	510	509	0	1018	38	0	
4	0	0	0	0	511	508	0	1018	38	0	
5	0	0	0	0	505	508	0	1018	38	0	
6	0	0	0	0	509	508	0	912	38	0	
7	0	0	0	0	515	508	0	503	39	0	
8	0	0	0	0	512	509	0	158	38	0	
9	0	0	0	0	512	509	0	0	38	0	
10	0	0	0	0	514	509	0	0	38	0	
11	0	0	0	0	513	507	0	0	38	0	
12	0	0	0	0	512	508	0	0	38	0	
13	0	0	0	0	504	506	0	0	38	0	
14	0	0	0	0	504	505	0	0	38	0	
15	0	0	0	0	502	506	0	0	39	0	
0	0	0	0	0	509	507	0	0	38	0	
1	0	0	0	0	514	508	0	0	38	0	
2	0	0	0	0	508	508	0	0	38	0	
3	0	0	0	0	507	506	0	0	38	0	
4	0	0	0	0	513	506	0	0	38	0	
5	0	0	0	0	513	507	0	0	38	0	
6	0	0	0	0	514	505	0	0	38	0	
7	0	0	0	0	509	505	0	0	39	0	
8	0	0	0	0	505	505	0	0	38	0	
9	0	0	0	0	492	506	0	514	38	0	
10	0	0	0	0	490	507	0	903	38	0	
11	0	0	0	0	504	507	0	1018	38	0	
12	0	0	0	0	509	509	0	1018	38	0	
13	0	0	0	0	505	510	0	1018	38	0	
14	0	0	0	0	509	510	0	1018	38	0	
15	0	0	0	0	510	508	0	1018	39	0	
0	0	0	0	0	515	510	0	1018	38	0	
1	0	0	0	0	517	511	0	1018	38	0	
2	0	0	0	0	519	511	0	1018	38	0	
3	0	0	0	0	515	508	0	1018	38	0	
4	0	0	0	0	512	508	0	1018	38	0	
5	0	0	0	0	508	509	0	1018	38	0	
6	0	0	0	0	504	508	0	1017	38	0	
7	0	0	0	0	502	508	0	409	39	0	
8	0	0	0	0	499	507	0	112	38	0	
9	0	0	0	0	508	508	0	0	38	0	
10	0	0	0	0	513	510	0	0	38	0	
11	0	0	0	0	513	509	0	0	38	0	
12	0	0	0	0	514	510	0	0	38	0	
13	0	0	0	0	515	509	0	0	38	0	
14	0	0	0	0	515	508	0	0	38	0	
15	0	0	0	0	513	508	0	0	39	0	
0	0	0	0	0	506	510	0	0	38	0	
1	0	0	0	0	512	511	0	0	38	0	
2	0	0	0	0	515	511	0	0	38	0	
3	0	0	0	0	510	510	0	0	38	0	
4	0	0	0	0	504	510	0	530	38	0	
5	0	0	0	0	504	510	0	950	38	0	
6	0	0	0	0	507	509	0	1018	38	0	
7	0	0	0	0	502	508	0	1018	39	0	
8	0	0	0	0	502	507	0	1018	38	0	
9	0	0	0	0	507	507	0	1018	38	0	
10	0	0	0	0	509	507	0	1018	38	0	
11	0	0	0	0	511	508	0	1018	38	0	
12	0	0	0	0	512	507	0	1018	38	0	
13	0	0	0	0	515	508	0	1018	38	0	
14	0	0	0	0	513	508	0	1018	38	0	
15	0	0	0	0	508	509	0	1018	39	0	
0	0	0	0	0	510	507	0	1018	38	0	
1	0	0	0	0	508	508	0	1018	38	0	
2	0	0	0	0	509	508	0	1018	38	0	
3	0	0	0	0	509	508	0	1018	38	0	
4	0	0	0	0	511	508	0	1018	38	0	
5	0	0	0	0	509	507	0	1018	38	0	
6	0	0	0	0	508	506	0	1018	38	0	
7	0	0	0	0	511	506	0	1018	39	0	
8	0	0	0	0	512	507	0	1018	38	0	
9	0	0	0	0	513	507	0	1018	38	0	
10	0	0	0	0	511	508	0	1018	38	0	
11	0	0	0	0	509	507	0	1018	38	0	
12	0	0	0	0	504	508	0	1018	38	0	
13	0	0	0	0	506	509	0	1018	38	0	
14	0	0	0	0	504	508	0	1018	38	0	
15	0	0	0	0	506	508	0	1018	39	0	
0	0	0	0	0	508	508	0	1018	38	0	
1	0	0	0	0	505	507	0	1018	38	0	
2	0	0	0	0	507	506	0	1018	38	0	
3	0	0	0	0	510	506	0	1018	38	0	
4	0	0	0	0	508	505	0	1018	38	0	
5	0	0	0	0	509	508	0	1018	38	0	
6	0	0	0	0	508	509	0	1018	38	0	
7	0	0	0	0	514	508	0	1018	39	0	
8	0	0	0	0	508	508	0	1018	38	0	
9	0	0	0	0	509	509	0	1018	38	0	
10	0	0	0	0	507	508	0	1018	38	0	
11	0	0	0	0	514	508	0	1018	38	0	
12	0	0	0	0	513	508	0	1018	38	0	
13	0	0	0	0	508	509	0	1018	38	0	
14	0	0	0	0	513	508	0	1018	38	0	
15	0	0	0	0	517	508	0	1018	39	0	
0	0	0	0	0	511	505	0	1018	38	0	
1	0	0	0	0	509	507	0	1018	38	0	
2	0	0	0	0	507	507	0	1018	38	0	
3	0	0	0	0	508	507	0	1018	38	0	
4	0	0	0	0	508	506	0	1018	38	0	
5	0	0	0	0	508	507	0	1018	38	0	
6	0	0	0	0	509	508	0	1018	38	0	
7	0	0	0	0	512	506	0	1018	39	0	
8	0	0	0	0	508	505	0	1018	38	0	
9	0	0	0	0	507	505	0	1018	38	0	
10	0	0	0	0	508	506	0	1018	38	0	
11	0	0	0	0	506	507	0	1018	38	0	
12	0	0	0	0	506	508	0	1018	38	0	
13	0	0	0	0	504	508	0	1018	38	0	
14	0	0	0	0	504	508	0	1018	38	0	
15	0	0	0	0	510	508	0	1018	39	0	
0	0	0	0	0	512	508	0	1018	38	0	
1	0	0	0	0	512	507	0	1018	38	0	
2	0	0	0	0	517	509	0	1018	38	0	
3	0	0	0	0	516	507	0	1018	38	0	
4	0	0	0	0	514	507	0	1018	38	0	
5	0	0	0	0	511	507	0	1018	38	0	
6	0	0	0	0	508	508	0	1018	38	0	
7	0	0	0	0	503	510	0	1018	39	0	
8	0	0	0	0	493	507	0	1018	38	0	
9	0	0	0	0	501	507	0	1018	38	0	
10	0	0	0	0	503	508	0	1018	38	0	
11	0	0	0	0	509	508	0	1018	38	0	
12	0	0	0	0	514	508	0	1018	38	0	
13	0	0	0	0	516	508	0	1018	38	0	
14	0	0	0	0	516	509	0	1018	38	0	
15	0	0	0	0	514	509	0	1018	39	0	
0	0	0	0	0	509	510	0	1018	38	0	
1	0	0	0	0	504	510	0	1018	38	0	
2	0	0	0	0	507	509	0	1018	38	0	
3	0	0	0	0	509	508	0	1018	38	0	
4	0	0	0	0	509	508	0	1018	38	0	
5	0	0	0	0	509	508	0	1018	38	0	
6	0	0	0	0	508	509	0	1018	38	0	
7	0	0	0	0	506	508	0	1018	39	0	
8	0	0	0	0	505	509	0	1018	38	0	
9	0	0	0	0	509	509	0	1018	38	0	
10	0	0	0	0	510	510	0	1018	38	0	
11	0	0	0	0	515	510	0	1018	38	0	
12	0	0	0	0	514	509	0	1018	38	0	
13	0	0	0	0	506	509	0	1018	38	0	
14	0	0	0	0	499	506	0	1017	38	0	
15	0	0	0	0	504	507	0	1018	39	0	
0	0	0	0	0	511	507	0	1018	38	0	
1	0	0	0	0	511	506	0	1018	38	0	
2	0	0	0	0	512	506	0	1018	38	0	
3	0	0	0	0	516	505	0	1018	38	0	
4	0	0	0	0	510	506	0	1017	38	0	
5	0	0	0	0	506	505	0	1017	38	0	
6	0	0	0	0	504	506	0	710	38	0	
7	0	0	0	0	504	508	0	495	39	0	
8	0	0	0	0	507	507	0	469	38	0	
9	0	0	0	0	512	507	0	380	38	0	
10	0	0	0	0	514	506	0	387	38	0	
11	0	0	0	0	506	505	0	597	38	0	
12	0	0	0	0	506	506	0	789	38	0	
13	0	0	0	0	512	506	0	929	38	0	
14	0	0	0	0	510	507	0	1013	38	0	
15	0	0	0	0	506	506	0	1017	39	0	
0	0	0	0	0	509	507	0	1017	38	0	
1	0	0	0	0	512	509	0	1017	38	0	
2	0	0	0	0	513	509	0	927	38	0	
3	0	0	0	0	508	507	0	551	38	0	
4	0	0	0	0	504	506	0	97	38	0	
5	0	0	0	0	508	508	0	0	38	0	
6	0	0	0	0	509	508	0	0	38	0	
7	0	0	0	0	508	510	0	0	39	0	
8	0	0	0	0	507	510	0	0	38	0	
9	0	0	0	0	511	510	0	0	38	0	
10	0	0	0	0	512	508	0	0	38	0	
11	0	0	0	0	513	507	0	0	38	0	
12	0	0	0	0	512	507	0	0	38	0	
13	0	0	0	0	512	509	0	0	38	0	
14	0	0	0	0	510	508	0	0	38	0	
15	0	0	0	0	507	510	0	0	39	0	
0	0	0	0	0	509	508	0	0	38	0	
1	0	0	0	0	512	509	0	0	38	0	
2	0	0	0	0	511	510	0	0	38	0	
3	0	0	0	0	504	509	0	0	38	0	
4	0	0	0	0	505	510	0	0	38	0	
5	0	0	0	0	508	509	0	0	38	0	
6	0	0	0	0	512	509	0	0	38	0	
7	0	0	0	0	514	509	0	0	39	0	
8	0	0	0	0	506	509	0	0	38	0	
9	0	0	0	0	505	510	0	0	38	0	
10	0	0	0	0	511	510	0	0	38	0	
11	0	0	0	0	507	511	0	0	38	0	
12	0	0	0	0	499	509	0	0	38	0	
13	0	0	0	0	504	507	0	0	38	0	
14	0	0	0	0	507	507	0	0	38	0	
15	0	0	0	0	500	508	0	0	39	0	
0	0	0	0	0	508	507	0	0	38	0	
1	0	0	0	0	512	507	0	0	38	0	
2	0	0	0	0	511	507	0	0	38	0	
3	0	0	0	0	511	508	0	0	38	0	
4	0	0	0	0	508	507	0	0	38	0	
5	0	0	0	0	518	507	0	0	38	0	
6	0	0	0	0	519	508	0	0	38	0	
7	0	0	0	0	517	507	0	0	39	0	
8	0	0	0	0	512	508	0	0	38	0	
9	0	0	0	0	508	509	0	0	38	0	
10	0	0	0	0	503	509	0	274	38	0	
11	0	0	0	0	498	507	0	685	38	0	
12	0	0	0	0	507	508	0	995	38	0	
13	0	0	0	0	515	507	0	1018	38	0	
14	0	0	0	0	514	507	0	1018	38	0	
15	0	0	0	0	512	506	0	1018	39	0	
0	0	0	0	0	516	506	0	1018	38	0	
1	0	0	0	0	508	506	0	1018	38	0	
2	0	0	0	0	509	507	0	1018	38	0	
3	0	0	0	0	511	506	0	1018	38	0	
4	0	0	0	0	507	508	0	1018	38	0	
5	0	0	0	0	507	507	0	1018	38	0	
6	0	0	0	0	505	507	0	1017	38	0	
7	0	0	0	0	506	507	0	879	39	0	
8	0	0	0	0	507	506	0	818	38	0	
9	0	0	0	0	500	506	0	783	38	0	
10	0	0	0	0	500	506	0	524	38	0	
11	0	0	0	0	507	505	0	128	38	0	
12	0	0	0	0	507	505	0	0	38	0	
13	0	0	0	0	505	507	0	0	38	0	
14	0	0	0	0	510	505	0	0	38	0	
15	0	0	0	0	511	506	0	0	39	0	
0	0	0	0	0	510	504	0	0	38	0	
1	0	0	0	0	519	504	0	0	38	0	
2	0	0	0	0	518	505	0	0	38	0	
3	0	0	0	0	518	505	0	0	38	0	
4	0	0	0	0	511	508	0	0	38	0	
5	0	0	0	0	508	507	0	0	38	0	
6	0	0	0	0	506	508	0	0	38	0	
7	0	0	0	0	507	509	0	0	39	0	
8	0	0	0	0	510	509	0	0	38	0	
9	0	0	0	0	510	508	0	236	38	0	
10	0	0	0	0	505	508	0	312	38	0	
11	0	0	0	0	507	509	0	371	38	0	
12	0	0	0	0	510	509	0	441	38	0	
13	0	0	0	0	513	509	0	690	38	0	
14	0	0	0	0	509	508	0	1016	38	0	
15	0	0	0	0	508	508	0	1018	39	0	
0	0	0	0	0	509	507	0	1018	38	0	
1	0	0	0	0	512	508	0	1018	38	0	
2	0	0	0	0	513	509	0	1018	38	0	
3	0	0	0	0	511	509	0	1018	38	0	
4	0	0	0	0	510	510	0	1018	38	0	
5	0	0	0	0	506	512	0	1018	38	0	
6	0	0	0	0	502	510	0	1018	38	0	
7	0	0	0	0	499	509	0	1018	39	0	
8	0	0	0	0	503	510	0	1018	38	0	
9	0	0	0	0	509	511	0	1018	38	0	
10	0	0	0	0	511	511	0	1018	38	0	
11	0	0	0	0	519	511	0	1018	38	0	
12	0	0	0	0	517	509	0	1018	38	0	
13	0	0	0	0	513	508	0	1018	38	0	
14	0	0	0	0	512	508	0	1018	38	0	
15	0	0	0	0	506	509	0	1018	39	0	
0	0	0	0	0	507	508	0	1018	38	0	
1	0	0	0	0	504	506	0	1018	38	0	
2	0	0	0	0	500	506	0	1018	38	0	
3	0	0	0	0	506	507	0	1018	38	0	
4	0	0	0	0	515	507	0	1018	38	0	
5	0	0	0	0	520	507	0	1018	38	0	
6	0	0	0	0	518	508	0	1018	38	0	
7	0	0	0	0	517	506	0	1018	39	0	
8	0	0	0	0	511	507	0	1018	38	0	
9	0	0	0	0	502	508	0	1018	38	0	
10	0	0	0	0	504	508	0	1018	38	0	
11	0	0	0	0	494	508	0	1018	38	0	
12	0	0	0	0	501	508	0	1018	38	0	
13	0	0	0	0	509	507	0	1017	38	0	
14	0	0	0	0	503	506	0	744	38	0	
15	0	0	0	0	504	507	0	638	39	0	
0	0	0	0	0	505	507	0	561	38	0	
1	0	0	0	0	504	508	0	650	38	0	
2	0	0	0	0	498	508	0	726	38	0	
3	0	0	0	0	511	507	0	846	38	0	
4	0	0	0	0	519	507	0	994	38	0	
5	0	0	0	0	521	508	0	1018	38	0	
6	0	0	0	0	517	508	0	1018	38	0	
7	0	0	0	0	521	508	0	1018	39	0	
8	0	0	0	0	516	507	0	1018	38	0	
9	0	0	0	0	513	508	0	1018	38	0	
10	0	0	0	0	517	509	0	1018	38	0	
11	0	0	0	0	507	507	0	1018	38	0	
12	0	0	0	0	509	508	0	1018	38	0	
13	0	0	0	0	511	506	0	1018	38	0	
14	0	0	0	0	508	506	0	1018	38	0	
15	0	0	0	0	507	507	0	1018	39	0	
0	0	0	0	0	505	507	0	1018	38	0	
1	0	0	0	0	505	508	0	1018	38	0	
2	0	0	0	0	507	508	0	1018	38	0	
3	0	0	0	0	512	509	0	1018	38	0	
4	0	0	0	0	511	508	0	1018	38	0	
5	0	0	0	0	508	510	0	1018	38	0	
6	0	0	0	0	507	508	0	1018	38	0	
7	0	0	0	0	507	507	0	1018	39	0	
8	0	0	0	0	507	509	0	1018	38	0	
9	0	0	0	0	509	508	0	1018	38	0	
10	0	0	0	0	510	508	0	1018	38	0	
11	0	0	0	0	510	507	0	1018	38	0	
12	0	0	0	0	511	505	0	1018	38	0	
13	0	0	0	0	513	507	0	1018	38	0	
14	0	0	0	0	514	507	0	1018	38	0	
15	0	0	0	0	506	508	0	1018	39	0	
0	0	0	0	0	504	508	0	1018	38	0	
1	0	0	0	0	506	508	0	1018	38	0	
2	0	0	0	0	511	509	0	1018	38	0	
3	0	0	0	0	511	509	0	1018	38	0	
4	0	0	0	0	507	510	0	1018	38	0	
5	0	0	0	0	507	509	0	1018	38	0	
6	0	0	0	0	505	510	0	1018	38	0	
7	0	0	0	0	503	510	0	1018	39	0	
8	0	0	0	0	510	510	0	1018	38	0	
9	0	0	0	0	514	512	0	1018	38	0	
10	0	0	0	0	516	510	0	1018	38	0	
11	0	0	0	0	513	509	0	1018	38	0	
12	0	0	0	0	510	508	0	1018	38	0	
13	0	0	0	0	513	510	0	1018	38	0	
14	0	0	0	0	505	511	0	1018	38	0	
15	0	0	0	0	502	509	0	1018	39	0	
0	0	0	0	0	506	508	0	1018	38	0	
1	0	0	0	0	510	508	0	1018	38	0	
2	0	0	0	0	514	508	0	1018	38	0	
3	0	0	0	0	512	507	0	1018	38	0	
4	0	0	0	0	512	506	0	1018	38	0	
5	0	0	0	0	512	506	0	1018	38	0	
6	0	0	0	0	509	505	0	1018	38	0	
7	0	0	0	0	509	507	0	1018	39	0	
8	0	0	0	0	511	507	0	1018	38	0	
9	0	0	0	0	507	505	0	1018	38	0	
10	0	0	0	0	508	505	0	1018	38	0	
11	0	0	0	0	502	505	0	1018	38	0	
12	0	0	0	0	509	505	0	1018	38	0	
13	0	0	0	0	505	505	0	1018	38	0	
14	0	0	0	0	507	505	0	1018	38	0	
15	0	0	0	0	513	506	0	1018	39	0	
0	0	0	0	0	512	506	0	1018	38	0	
1	0	0	0	0	501	505	0	1018	38	0	
2	0	0	0	0	505	506	0	1018	38	0	
3	0	0	0	0	503	505	0	1018	38	0	
4	0	0	0	0	511	507	0	1018	38	0	
5	0	0	0	0	513	507	0	1018	38	0	
6	0	0	0	0	510	507	0	1018	38	0	
7	0	0	0	0	511	507	0	1018	39	0	
8	0	0	0	0	515	507	0	1018	38	0	
9	0	0	0	0	513	507	0	1018	38	0	
10	0	0	0	0	503	509	0	1018	38	0	
11	0	0	0	0	507	510	0	1018	38	0	
12	0	0	0	0	518	511	0	1018	38	0	
13	0	0	0	0	515	512	0	731	38	0	
14	0	0	0	0	509	512	0	473	38	0	
15	0	0	0	0	506	509	0	182	39	0	
0	0	0	0	0	523	509	0	0	38	0	
1	0	0	0	0	516	508	0	0	38	0	
2	0	0	0	0	500	508	0	0	38	0	
3	0	0	0	0	496	507	0	0	38	0	
4	0	0	0	0	508	509	0	0	38	0	
5	0	0	0	0	517	508	0	0	38	0	
6	0	0	0	0	515	508	0	0	38	0	
7	0	0	0	0	511	507	0	0	39	0	
8	0	0	0	0	507	507	0	0	38	0	
9	0	0	0	0	509	508	0	0	38	0	
10	0	0	0	0	512	508	0	0	38	0	
11	0	0	0	0	510	507	0	0	38	0	
12	0	0	0	0	507	508	0	0	38	0	
13	0	0	0	0	509	508	0	0	38	0	
14	0	0	0	0	511	506	0	0	38	0	
15	0	0	0	0	511	506	0	0	39	0	
0	0	0	0	0	499	504	0	0	38	0	
1	0	0	0	0	502	506	0	0	38	0	
2	0	0	0	0	500	504	0	0	38	0	
3	0	0	0	0	491	504	0	0	38	0	
4	0	0	0	0	495	505	0	0	38	0	
5	0	0	0	0	507	507	0	0	38	0	
6	0	0	0	0	514	508	0	0	38	0	
7	0	0	0	0	512	510	0	0	39	0	
8	0	0	0	0	529	510	0	0	38	0	
9	0	0	0	0	526	510	0	0	38	0	
10	0	0	0	0	515	510	0	0	38	0	
11	0	0	0	0	510	510	0	0	38	0	
12	0	0	0	0	511	510	0	0	38	0	
13	0	0	0	0	507	510	0	0	38	0	
14	0	0	0	0	498	509	0	0	38	0	
15	0	0	0	0	493	508	0	0	39	0	
0	0	0	0	0	508	509	0	0	38	0	
1	0	0	0	0	519	508	0	0	38	0	
2	0	0	0	0	498	507	0	0	38	0	
3	0	0	0	0	507	507	0	0	38	0	
4	0	0	0	0	517	507	0	0	38	0	
5	0	0	0	0	516	506	0	0	38	0	
6	0	0	0	0	516	508	0	0	38	0	
7	0	0	0	0	517	508	0	0	39	0	
8	0	0	0	0	516	508	0	0	38	0	
9	0	0	0	0	512	505	0	0	38	0	
10	0	0	0	0	515	506	0	0	38	0	
11	0	0	0	0	514	508	0	0	38	0	
12	0	0	0	0	505	507	0	0	38	0	
13	0	0	0	0	493	509	0	0	38	0	
14	0	0	0	0	495	510	0	0	38	0	
15	0	0	0	0	499	508	0	0	39	0	
0	0	0	0	0	499	508	0	0	38	0	
1	0	0	0	0	508	507	0	0	38	0	
2	0	0	0	0	512	506	0	0	38	0	
3	0	0	0	0	511	506	0	0	38	0	
4	0	0	0	0	514	506	0	0	38	0	
5	0	0	0	0	514	505	0	0	38	0	
6	0	0	0	0	502	505	0	0	38	0	
7	0	0	0	0	509	504	0	0	39	0	
8	0	0	0	0	507	505	0	0	38	0	
9	0	0	0	0	523	505	0	571	38	0	
10	0	0	0	0	524	505	0	1017	38	0	
11	0	0	0	0	514	505	0	1018	38	0	
12	0	0	0	0	508	505	0	1018	38	0	
13	0	0	0	0	488	504	0	1018	38	0	
14	0	0	0	0	492	504	0	1018	38	0	
15	0	0	0	0	511	505	0	1018	39	0	
0	0	0	0	0	519	506	0	1018	38	0	
1	0	0	0	0	525	508	0	1018	38	0	
2	0	0	0	0	522	508	0	1018	38	0	
3	0	0	0	0	515	508	0	1018	38	0	
4	0	0	0	0	510	508	0	1018	38	0	
5	0	0	0	0	504	510	0	1018	38	0	
6	0	0	0	0	507	509	0	1018	38	0	
7	0	0	0	0	499	509	0	1018	39	0	
8	0	0	0	0	492	508	0	1018	38	0	
9	0	0	0	0	496	507	0	1018	38	0	
10	0	0	0	0	514	508	0	1018	38	0	
11	0	0	0	0	527	508	0	1018	38	0	
12	0	0	0	0	511	509	0	1018	38	0	
13	0	0	0	0	505	509	0	1018	38	0	
14	0	0	0	0	499	508	0	1018	38	0	
15	0	0	0	0	499	507	0	1018	39	0	
0	0	0	0	0	493	508	0	1018	38	0	
1	0	0	0	0	504	509	0	1018	38	0	
2	0	0	0	0	519	508	0	1018	38	0	
3	0	0	0	0	528	508	0	1018	38	0	
4	0	0	0	0	519	509	0	1018	38	0	
5	0	0	0	0	503	510	0	1018	38	0	
6	0	0	0	0	513	511	0	1018	38	0	
7	0	0	0	0	524	510	0	1018	39	0	
8	0	0	0	0	524	510	0	1018	38	0	
9	0	0	0	0	516	510	0	1018	38	0	
10	0	0	0	0	507	510	0	1018	38	0	
11	0	0	0	0	516	511	0	1018	38	0	
12	0	0	0	0	513	511	0	1018	38	0	
13	0	0	0	0	506	511	0	1018	38	0	
14	0	0	0	0	502	510	0	1018	38	0	
15	0	0	0	0	511	509	0	1018	39	0	
0	0	0	0	0	508	508	0	1018	38	0	
1	0	0	0	0	511	509	0	1018	38	0	
2	0	0	0	0	500	508	0	1018	38	0	
3	0	0	0	0	502	505	0	1018	38	0	
4	0	0	0	0	513	507	0	1018	38	0	
5	0	0	0	0	498	508	0	1018	38	0	
6	0	0	0	0	486	509	0	1018	38	0	
7	0	0	0	0	516	508	0	1018	39	0	
8	0	0	0	0	531	508	0	1018	38	0	
9	0	0	0	0	523	507	0	1018	38	0	
10	0	0	0	0	518	507	0	1018	38	0	
11	0	0	0	0	514	507	0	1018	38	0	
12	0	0	0	0	509	508	0	1018	38	0	
13	0	0	0	0	485	508	0	1018	38	0	
14	0	0	0	0	489	508	0	877	38	0	
15	0	0	0	0	506	508	0	803	39	0	
0	0	0	0	0	517	508	0	887	38	0	
1	0	0	0	0	511	509	0	998	38	0	
2	0	0	0	0	511	510	0	1018	38	0	
3	0	0	0	0	519	508	0	1018	38	0	
4	0	0	0	0	518	508	0	1018	38	0	
5	0	0	0	0	511	510	0	1018	38	0	
6	0	0	0	0	505	510	0	1018	38	0	
7	0	0	0	0	489	509	0	1018	39	0	
8	0	0	0	0	489	508	0	1018	38	0	
9	0	0	0	0	516	508	0	1018	38	0	
10	0	0	0	0	510	508	0	1018	38	0	
11	0	0	0	0	506	508	0	1018	38	0	
12	0	0	0	0	523	508	0	1018	38	0	
13	0	0	0	0	526	508	0	1018	38	0	
14	0	0	0	0	523	507	0	1018	38	0	
15	0	0	0	0	507	506	0	1018	39	0	
0	0	0	0	0	493	508	0	1018	38	0	
1	0	0	0	0	481	508	0	1018	38	0	
2	0	0	0	0	495	508	0	1018	38	0	
3	0	0	0	0	509	508	0	1018	38	0	
4	0	0	0	0	534	508	0	1018	38	0	
5	0	0	0	0	530	508	0	1018	38	0	
6	0	0	0	0	520	508	0	1018	38	0	
7	0	0	0	0	510	507	0	1018	39	0	
8	0	0	0	0	507	507	0	1018	38	0	
9	0	0	0	0	508	506	0	1018	38	0	
10	0	0	0	0	486	507	0	1018	38	0	
11	0	0	0	0	487	507	0	1018	38	0	
12	0	0	0	0	500	507	0	1018	38	0	
13	0	0	0	0	524	507	0	685	38	0	
14	0	0	0	0	532	507	0	140	38	0	
15	0	0	0	0	516	508	0	0	39	0	
0	0	0	0	0	516	508	0	0	38	0	
1	0	0	0	0	519	509	0	0	38	0	
2	0	0	0	0	521	508	0	0	38	0	
3	0	0	0	0	523	510	0	0	38	0	
4	0	0	0	0	517	509	0	0	38	0	
5	0	0	0	0	510	510	0	0	38	0	
6	0	0	0	0	504	510	0	0	38	0	
7	0	0	0	0	487	509	0	0	39	0	
8	0	0	0	0	460	508	0	0	38	0	
9	0	0	0	0	471	509	0	0	38	0	
10	0	0	0	0	509	509	0	0	38	0	
11	0	0	0	0	521	507	0	0	38	0	
12	0	0	0	0	517	508	0	0	38	0	
13	0	0	0	0	511	508	0	0	38	0	
14	0	0	0	0	520	507	0	0	38	0	
15	0	0	0	0	520	508	0	0	39	0	
0	0	0	0	0	519	508	0	0	38	0	
1	0	0	0	0	506	508	0	0	38	0	
2	0	0	0	0	523	508	0	0	38	0	
3	0	0	0	0	517	507	0	0	38	0	
4	0	0	0	0	504	507	0	0	38	0	
5	0	0	0	0	499	507	0	0	38	0	
6	0	0	0	0	503	507	0	0	38	0	
7	0	0	0	0	499	506	0	0	39	0	
8	0	0	0	0	498	507	0	0	38	0	
9	0	0	0	0	515	506	0	0	38	0	
10	0	0	0	0	510	507	0	0	38	0	
11	0	0	0	0	520	508	0	0	38	0	
12	0	0	0	0	515	509	0	0	38	0	
13	0	0	0	0	507	509	0	0	38	0	
14	0	0	0	0	485	509	0	0	38	0	
15	0	0	0	0	480	510	0	0	39	0	
0	0	0	0	0	527	507	0	0	38	0	
1	0	0	0	0	536	506	0	0	38	0	
2	0	0	0	0	513	506	0	0	38	0	
3	0	0	0	0	507	506	0	0	38	0	
4	0	0	0	0	512	508	0	0	38	0	
5	0	0	0	0	511	508	0	0	38	0	
6	0	0	0	0	509	508	0	0	38	0	
7	0	0	0	0	506	507	0	0	39	0	
8	0	0	0	0	510	507	0	0	38	0	
9	0	0	0	0	499	506	0	0	38	0	
10	0	0	0	0	496	506	0	0	38	0	
11	0	0	0	0	511	505	0	0	38	0	
12	0	0	0	0	526	504	0	0	38	0	
13	0	0	0	0	519	506	0	0	38	0	
14	0	0	0	0	499	507	0	0	38	0	
15	0	0	0	0	503	507	0	0	39	0	
0	0	0	0	0	495	507	0	0	38	0	
1	0	0	0	0	496	507	0	0	38	0	
2	0	0	0	0	513	507	0	0	38	0	
3	0	0	0	0	512	506	0	0	38	0	
4	0	0	0	0	513	508	0	0	38	0	
5	0	0	0	0	516	507	0	0	38	0	
6	0	0	0	0	512	507	0	0	38	0	
7	0	0	0	0	512	506	0	0	39	0	
8	0	0	0	0	508	505	0	0	38	0	
9	0	0	0	0	493	505	0	0	38	0	
10	0	0	0	0	515	505	0	0	38	0	
11	0	0	0	0	533	505	0	0	38	0	
12	0	0	0	0	524	508	0	0	38	0	
13	0	0	0	0	504	509	0	0	38	0	
14	0	0	0	0	492	510	0	0	38	0	
15	0	0	0	0	502	511	0	0	39	0	
0	0	0	0	0	503	510	0	218	38	0	
1	0	0	0	0	517	510	0	565	38	0	
2	0	0	0	0	516	510	0	1018	38	0	
3	0	0	0	0	514	510	0	1018	38	0	
4	0	0	0	0	503	509	0	1018	38	0	
5	0	0	0	0	509	511	0	1018	38	0	
6	0	0	0	0	518	509	0	1018	38	0	
7	0	0	0	0	519	510	0	1018	39	0	
8	0	0	0	0	509	508	0	1018	38	0	
9	0	0	0	0	487	508	0	1018	38	0	
10	0	0	0	0	497	509	0	1018	38	0	
11	0	0	0	0	509	508	0	1018	38	0	
12	0	0	0	0	513	506	0	1018	38	0	
13	0	0	0	0	508	507	0	1018	38	0	
14	0	0	0	0	506	507	0	1018	38	0	
15	0	0	0	0	504	506	0	1018	39	0	
0	0	0	0	0	510	507	0	1018	38	0	
1	0	0	0	0	500	508	0	1018	38	0	
2	0	0	0	0	501	507	0	1018	38	0	
3	0	0	0	0	514	508	0	1018	38	0	
4	0	0	0	0	516	509	0	1018	38	0	
5	0	0	0	0	510	508	0	1018	38	0	
6	0	0	0	0	511	509	0	1018	38	0	
7	0	0	0	0	512	510	0	1018	39	0	
8	0	0	0	0	520	509	0	1018	38	0	
9	0	0	0	0	519	510	0	1018	38	0	
10	0	0	0	0	529	510	0	1018	38	0	
11	0	0	0	0	519	510	0	1018	38	0	
12	0	0	0	0	511	510	0	1018	38	0	
13	0	0	0	0	492	511	0	1018	38	0	
14	0	0	0	0	490	509	0	1018	38	0	
15	0	0	0	0	489	508	0	1018	39	0	
0	0	0	0	0	520	508	0	1018	38	0	
1	0	0	0	0	500	509	0	1018	38	0	
2	0	0	0	0	465	509	0	1018	38	0	
3	0	0	0	0	511	509	0	1018	38	0	
4	0	0	0	0	543	509	0	1018	38	0	
5	0	0	0	0	542	508	0	1018	38	0	
6	0	0	0	0	512	509	0	1018	38	0	
7	0	0	0	0	506	508	0	797	39	0	
8	0	0	0	0	517	510	0	899	38	0	
9	0	0	0	0	520	509	0	1018	38	0	
10	0	0	0	0	505	508	0	1018	38	0	
11	0	0	0	0	481	508	0	1018	38	0	
12	0	0	0	0	499	508	0	1018	38	0	
13	0	0	0	0	516	507	0	1018	38	0	
14	0	0	0	0	514	507	0	1018	38	0	
15	0	0	0	0	502	506	0	1018	39	0	
0	0	0	0	0	480	506	0	1018	38	0	
1	0	0	0	0	501	506	0	1018	38	0	
2	0	0	0	0	530	505	0	1018	38	0	
3	0	0	0	0	516	505	0	1018	38	0	
4	0	0	0	0	508	506	0	1018	38	0	
5	0	0	0	0	513	506	0	1018	38	0	
6	0	0	0	0	520	506	0	1018	38	0	
7	0	0	0	0	520	505	0	1018	39	0	
8	0	0	0	0	516	505	0	1018	38	0	
9	0	0	0	0	501	505	0	1018	38	0	
10	0	0	0	0	526	506	0	1018	38	0	
11	0	0	0	0	526	505	0	1018	38	0	
12	0	0	0	0	518	507	0	1018	38	0	
13	0	0	0	0	508	508	0	1018	38	0	
14	0	0	0	0	497	509	0	1018	38	0	
15	0	0	0	0	473	510	0	1018	39	0	
0	0	0	0	0	479	511	0	1018	38	0	
1	0	0	0	0	505	510	0	1018	38	0	
2	0	0	0	0	521	511	0	1018	38	0	
3	0	0	0	0	524	509	0	1018	38	0	
4	0	0	0	0	522	508	0	1018	38	0	
5	0	0	0	0	513	510	0	1018	38	0	
6	0	0	0	0	506	509	0	1018	38	0	
7	0	0	0	0	483	508	0	1018	39	0	
8	0	0	0	0	466	509	0	1018	38	0	
9	0	0	0	0	482	508	0	1018	38	0	
10	0	0	0	0	534	507	0	1018	38	0	
11	0	0	0	0	540	508	0	1018	38	0	
12	0	0	0	0	516	508	0	1018	38	0	
13	0	0	0	0	517	509	0	1018	38	0	
14	0	0	0	0	508	510	0	1018	38	0	
15	0	0	0	0	521	511	0	1018	39	0	
0	0	0	0	0	534	510	0	1017	38	0	
1	0	0	0	0	527	509	0	1017	38	0	
2	0	0	0	0	516	509	0	1018	38	0	
3	0	0	0	0	503	508	0	1018	38	0	
4	0	0	0	0	488	509	0	1018	38	0	
5	0	0	0	0	500	509	0	1018	38	0	
6	0	0	0	0	488	509	0	1018	38	0	
7	0	0	0	0	512	510	0	1018	39	0	
8	0	0	0	0	519	510	0	1018	38	0	
9	0	0	0	0	515	511	0	1018	38	0	
10	0	0	0	0	501	511	0	1017	38	0	
11	0	0	0	0	501	512	0	910	38	0	
12	0	0	0	0	499	511	0	836	38	0	
13	0	0	0	0	509	509	0	782	38	0	
14	0	0	0	0	519	509	0	700	38	0	
15	0	0	0	0	519	507	0	682	39	0	
0	0	0	0	0	515	508	0	679	38	0	
1	0	0	0	0	505	508	0	563	38	0	
2	0	0	0	0	499	509	0	466	38	0	
3	0	0	0	0	513	508	0	389	38	0	
4	0	0	0	0	533	507	0	287	38	0	
5	0	0	0	0	534	508	0	168	38	0	
6	0	0	0	0	526	508	0	144	38	0	
7	0	0	0	0	476	509	0	191	39	0	
8	0	0	0	0	465	508	0	270	38	0	
9	0	0	0	0	475	509	0	430	38	0	
10	0	0	0	0	494	509	0	719	38	0	
11	0	0	0	0	537	510	0	1018	38	0	
12	0	0	0	0	532	511	0	1018	38	0	
13	0	0	0	0	513	509	0	1018	38	0	
14	0	0	0	0	511	509	0	1018	38	0	
15	0	0	0	0	511	509	0	1018	39	0	
0	0	0	0	0	502	507	0	1018	38	0	
1	0	0	0	0	513	507	0	1018	38	0	
2	0	0	0	0	519	508	0	1018	38	0	
3	0	0	0	0	515	505	0	1018	38	0	
4	0	0	0	0	512	504	0	1018	38	0	
5	0	0	0	0	513	505	0	1018	38	0	
6	0	0	0	0	505	505	0	1018	38	0	
7	0	0	0	0	493	505	0	1018	39	0	
8	0	0	0	0	491	506	0	1018	38	0	
9	0	0	0	0	505	505	0	1018	38	0	
10	0	0	0	0	528	507	0	1018	38	0	
11	0	0	0	0	523	507	0	1018	38	0	
12	0	0	0	0	524	507	0	1018	38	0	
13	0	0	0	0	509	507	0	1018	38	0	
14	0	0	0	0	500	505	0	1018	38	0	
15	0	0	0	0	496	505	0	1018	39	0	
0	0	0	0	0	496	504	0	1018	38	0	
1	0	0	0	0	511	506	0	1018	38	0	
2	0	0	0	0	517	506	0	1018	38	0	
3	0	0	0	0	504	506	0	1018	38	0	
4	0	0	0	0	498	507	0	1018	38	0	
5	0	0	0	0	513	507	0	1018	38	0	
6	0	0	0	0	519	508	0	1018	38	0	
7	0	0	0	0	522	508	0	1018	39	0	
8	0	0	0	0	525	510	0	1018	38	0	
9	0	0	0	0	524	509	0	1018	38	0	
10	0	0	0	0	515	509	0	1018	38	0	
11	0	0	0	0	505	508	0	1018	38	0	
12	0	0	0	0	509	506	0	1018	38	0	
13	0	0	0	0	513	508	0	1018	38	0	
14	0	0	0	0	512	509	0	1018	38	0	
15	0	0	0	0	510	508	0	1018	39	0	
0	0	0	0	0	485	508	0	1018	38	0	
1	0	0	0	0	472	508	0	1018	38	0	
2	0	0	0	0	509	510	0	1018	38	0	
3	0	0	0	0	521	508	0	1018	38	0	
4	0	0	0	0	514	508	0	1018	38	0	
5	0	0	0	0	505	508	0	1018	38	0	
6	0	0	0	0	503	509	0	1018	38	0	
7	0	0	0	0	503	509	0	1018	39	0	
8	0	0	0	0	497	509	0	1018	38	0	
9	0	0	0	0	509	509	0	1018	38	0	
10	0	0	0	0	508	510	0	1018	38	0	
11	0	0	0	0	505	510	0	1018	38	0	
12	0	0	0	0	519	510	0	1018	38	0	
13	0	0	0	0	528	510	0	1018	38	0	
14	0	0	0	0	513	509	0	1018	38	0	
15	0	0	0	0	517	508	0	1018	39	0	
0	0	0	0	0	529	508	0	1018	38	0	
1	0	0	0	0	512	510	0	1018	38	0	
2	0	0	0	0	503	508	0	1018	38	0	
3	0	0	0	0	504	508	0	1018	38	0	
4	0	0	0	0	503	508	0	1018	38	0	
5	0	0	0	0	506	508	0	1018	38	0	
6	0	0	0	0	517	507	0	1018	38	0	
7	0	0	0	0	523	509	0	1018	39	0	
8	0	0	0	0	518	508	0	1018	38	0	
9	0	0	0	0	514	509	0	1018	38	0	
10	0	0	0	0	501	508	0	1018	38	0	
11	0	0	0	0	498	508	0	1018	38	0	
12	0	0	0	0	520	509	0	1018	38	0	
13	0	0	0	0	519	509	0	1018	38	0	
14	0	0	0	0	502	508	0	1018	38	0	
15	0	0	0	0	499	508	0	1018	39	0	
0	0	0	0	0	474	508	0	1018	38	0	
1	0	0	0	0	465	508	0	1018	38	0	
2	0	0	0	0	517	507	0	1018	38	0	
3	0	0	0	0	543	508	0	1018	38	0	
4	0	0	0	0	524	507	0	1018	38	0	
5	0	0	0	0	506	508	0	1018	38	0	
6	0	0	0	0	502	508	0	1018	38	0	
7	0	0	0	0	502	506	0	1018	39	0	
8	0	0	0	0	504	506	0	1017	38	0	
9	0	0	0	0	508	507	0	764	38	0	
10	0	0	0	0	510	508	0	320	38	0	
11	0	0	0	0	510	508	0	0	38	0	
12	0	0	0	0	516	507	0	0	38	0	
13	0	0	0	0	515	508	0	0	38	0	
14	0	0	0	0	519	507	0	0	38	0	
15	0	0	0	0	513	507	0	0	39	0	
0	0	0	0	0	511	507	0	0	38	0	
1	0	0	0	0	506	505	0	0	38	0	
2	0	0	0	0	492	507	0	0	38	0	
3	0	0	0	0	514	507	0	0	38	0	
4	0	0	0	0	524	506	0	0	38	0	
5	0	0	0	0	516	507	0	0	38	0	
6	0	0	0	0	502	508	0	0	38	0	
7	0	0	0	0	500	510	0	0	39	0	
8	0	0	0	0	497	509	0	0	38	0	
9	0	0	0	0	498	511	0	0	38	0	
10	0	0	0	0	521	512	0	0	38	0	
11	0	0	0	0	525	511	0	0	38	0	
12	0	0	0	0	521	511	0	0	38	0	
13	0	0	0	0	507	510	0	0	38	0	
14	0	0	0	0	504	508	0	0	38	0	
15	0	0	0	0	512	507	0	0	39	0	
0	0	0	0	0	511	507	0	0	38	0	
1	0	0	0	0	515	507	0	0	38	0	
2	0	0	0	0	513	505	0	0	38	0	
3	0	0	0	0	521	505	0	0	38	0	
4	0	0	0	0	515	506	0	0	38	0	
5	0	0	0	0	492	508	0	0	38	0	
6	0	0	0	0	465	507	0	0	38	0	
7	0	0	0	0	475	505	0	0	39	0	
8	0	0	0	0	499	506	0	0	38	0	
9	0	0	0	0	504	505	0	0	38	0	
10	0	0	0	0	515	507	0	0	38	0	
11	0	0	0	0	530	507	0	0	38	0	
12	0	0	0	0	525	506	0	0	38	0	
13	0	0	0	0	522	508	0	0	38	0	
14	0	0	0	0	502	510	0	0	38	0	
15	0	0	0	0	505	510	0	0	39	0	
0	0	0	0	0	520	509	0	0	38	0	
1	0	0	0	0	525	508	0	0	38	0	
2	0	0	0	0	510	509	0	0	38	0	
3	0	0	0	0	511	510	0	0	38	0	
4	0	0	0	0	494	509	0	0	38	0	
5	0	0	0	0	504	508	0	0	38	0	
6	0	0	0	0	524	507	0	0	38	0	
7	0	0	0	0	524	506	0	0	39	0	
8	0	0	0	0	521	508	0	0	38	0	
9	0	0	0	0	515	508	0	0	38	0	
10	0	0	0	0	510	508	0	0	38	0	
11	0	0	0	0	502	506	0	0	38	0	
12	0	0	0	0	508	509	0	0	38	0	
13	0	0	0	0	509	507	0	0	38	0	
14	0	0	0	0	504	505	0	0	38	0	
15	0	0	0	0	483	506	0	0	39	0	
0	0	0	0	0	484	505	0	0	38	0	
1	0	0	0	0	521	507	0	0	38	0	
2	0	0	0	0	520	506	0	0	38	0	
3	0	0	0	0	512	506	0	0	38	0	
4	0	0	0	0	503	505	0	0	38	0	
5	0	0	0	0	502	504	0	0	38	0	
6	0	0	0	0	503	503	0	0	38	0	
7	0	0	0	0	508	504	0	0	39	0	
8	0	0	0	0	496	504	0	0	38	0	
9	0	0	0	0	493	506	0	0	38	0	
10	0	0	0	0	516	507	0	0	38	0	
11	0	0	0	0	524	507	0	0	38	0	
12	0	0	0	0	521	506	0	0	38	0	
13	0	0	0	0	496	507	0	0	38	0	
14	0	0	0	0	488	506	0	0	38	0	
15	0	0	0	0	508	507	0	0	39	0	
0	0	0	0	0	518	506	0	0	38	0	
1	0	0	0	0	531	508	0	0	38	0	
2	0	0	0	0	520	507	0	0	38	0	
3	0	0	0	0	512	506	0	0	38	0	
4	0	0	0	0	518	506	0	0	38	0	
5	0	0	0	0	518	507	0	0	38	0	
6	0	0	0	0	510	508	0	0	38	0	
7	0	0	0	0	502	510	0	0	39	0	
8	0	0	0	0	505	508	0	0	38	0	
9	0	0	0	0	502	508	0	0	38	0	
10	0	0	0	0	501	507	0	0	38	0	
11	0	0	0	0	502	507	0	0	38	0	
12	0	0	0	0	503	504	0	0	38	0	
13	0	0	0	0	514	504	0	0	38	0	
14	0	0	0	0	522	505	0	0	38	0	
15	0	0	0	0	519	507	0	0	39	0	
0	0	0	0	0	507	508	0	0	38	0	
1	0	0	0	0	499	508	0	0	38	0	
2	0	0	0	0	505	509	0	0	38	0	
3	0	0	0	0	511	509	0	0	38	0	
4	0	0	0	0	508	509	0	0	38	0	
5	0	0	0	0	503	508	0	0	38	0	
6	0	0	0	0	504	508	0	0	38	0	
7	0	0	0	0	505	506	0	0	39	0	
8	0	0	0	0	506	506	0	0	38	0	
9	0	0	0	0	515	503	0	0	38	0	
10	0	0	0	0	513	504	0	0	38	0	
11	0	0	0	0	510	504	0	0	38	0	
12	0	0	0	0	514	504	0	0	38	0	
13	0	0	0	0	516	504	0	0	38	0	
14	0	0	0	0	512	504	0	0	38	0	
15	0	0	0	0	512	504	0	0	39	0	
0	0	0	0	0	513	505	0	0	38	0	
1	0	0	0	0	508	506	0	0	38	0	
2	0	0	0	0	505	507	0	0	38	0	
3	0	0	0	0	509	507	0	0	38	0	
4	0	0	0	0	511	507	0	0	38	0	
5	0	0	0	0	498	508	0	0	38	0	
6	0	0	0	0	503	507	0	0	38	0	
7	0	0	0	0	504	507	0	0	39	0	
8	0	0	0	0	510	507	0	0	38	0	
9	0	0	0	0	541	506	0	0	38	0	
10	0	0	0	0	528	506	0	0	38	0	
11	0	0	0	0	502	505	0	0	38	0	
12	0	0	0	0	477	506	0	0	38	0	
13	0	0	0	0	462	509	0	0	38	0	
14	0	0	0	0	492	510	0	0	38	0	
15	0	0	0	0	526	510	0	0	39	0	
0	0	0	0	0	503	511	0	0	38	0	
1	0	0	0	0	525	510	0	0	38	0	
2	0	0	0	0	544	508	0	0	38	0	
3	0	0	0	0	530	507	0	0	38	0	
4	0	0	0	0	511	507	0	0	38	0	
5	0	0	0	0	501	507	0	0	38	0	
6	0	0	0	0	519	507	0	0	38	0	
7	0	0	0	0	514	507	0	0	39	0	
8	0	0	0	0	502	508	0	0	38	0	
9	0	0	0	0	501	508	0	0	38	0	
10	0	0	0	0	504	509	0	0	38	0	
11	0	0	0	0	504	509	0	0	38	0	
12	0	0	0	0	502	510	0	0	38	0	
13	0	0	0	0	512	509	0	0	38	0	
14	0	0	0	0	509	509	0	0	38	0	
15	0	0	0	0	500	510	0	0	39	0	
0	0	0	0	0	503	509	0	0	38	0	
1	0	0	0	0	512	509	0	0	38	0	
2	0	0	0	0	514	507	0	0	38	0	
3	0	0	0	0	506	507	0	0	38	0	
4	0	0	0	0	516	507	0	0	38	0	
5	0	0	0	0	503	508	0	0	38	0	
6	0	0	0	0	504	509	0	0	38	0	
7	0	0	0	0	502	509	0	0	39	0	
8	0	0	0	0	510	511	0	0	38	0	
9	0	0	0	0	513	512	0	0	38	0	
10	0	0	0	0	517	510	0	0	38	0	
11	0	0	0	0	492	509	0	0	38	0	
12	0	0	0	0	488	508	0	0	38	0	
13	0	0	0	0	508	508	0	0	38	0	
14	0	0	0	0	516	506	0	0	38	0	
15	0	0	0	0	523	507	0	0	39	0	
0	0	0	0	0	528	506	0	0	38	0	
1	0	0	0	0	522	508	0	0	38	0	
2	0	0	0	0	515	510	0	0	38	0	
3	0	0	0	0	511	510	0	0	38	0	
4	0	0	0	0	511	509	0	0	38	0	
5	0	0	0	0	508	509	0	0	38	0	
6	0	0	0	0	507	508	0	0	38	0	
7	0	0	0	0	509	508	0	0	39	0	
8	0	0	0	0	509	509	0	0	38	0	
9	0	0	0	0	507	509	0	0	38	0	
10	0	0	0	0	495	509	0	0	38	0	
11	0	0	0	0	503	504	0	0	38	0	
12	0	0	0	0	506	504	0	0	38	0	
13	0	0	0	0	511	504	0	0	38	0	
14	0	0	0	0	517	503	0	0	38	0	
15	0	0	0	0	510	504	0	0	39	0	
0	0	0	0	0	502	504	0	0	38	0	
1	0	0	0	0	504	505	0	0	38	0	
2	0	0	0	0	509	507	0	0	38	0	
3	0	0	0	0	529	507	0	0	38	0	
4	0	0	0	0	535	509	0	0	38	0	
5	0	0	0	0	515	511	0	0	38	0	
6	0	0	0	0	473	513	0	0	38	0	
7	0	0	0	0	460	512	0	0	39	0	
8	0	0	0	0	475	510	0	0	38	0	
9	0	0	0	0	525	511	0	0	38	0	
10	0	0	0	0	538	510	0	0	38	0	
11	0	0	0	0	524	510	0	0	38	0	
12	0	0	0	0	516	509	0	0	38	0	
13	0	0	0	0	507	509	0	0	38	0	
14	0	0	0	0	506	508	0	0	38	0	
15	0	0	0	0	511	508	0	0	39	0	
0	0	0	0	0	512	510	0	0	38	0	
1	0	0	0	0	516	508	0	0	38	0	
2	0	0	0	0	510	507	0	0	38	0	
3	0	0	0	0	511	507	0	0	38	0	
4	0	0	0	0	507	506	0	0	38	0	
5	0	0	0	0	506	506	0	0	38	0	
6	0	0	0	0	510	504	0	0	38	0	
7	0	0	0	0	507	504	0	0	39	0	
8	0	0	0	0	503	507	0	0	38	0	
9	0	0	0	0	503	507	0	0	38	0	
10	0	0	0	0	513	509	0	0	38	0	
11	0	0	0	0	519	509	0	0	38	0	
12	0	0	0	0	516	509	0	0	38	0	
13	0	0	0	0	508	509	0	0	38	0	
14	0	0	0	0	513	508	0	268	38	0	
15	0	0	0	0	515	511	0	591	39	0	
0	0	0	0	0	507	511	0	994	38	0	
1	0	0	0	0	497	510	0	1018	38	0	
2	0	0	0	0	493	511	0	1018	38	0	
3	0	0	0	0	497	510	0	1018	38	0	
4	0	0	0	0	513	511	0	1018	38	0	
5	0	0	0	0	514	512	0	1018	38	0	
6	0	0	0	0	508	512	0	1018	38	0	
7	0	0	0	0	513	511	0	820	39	0	
8	0	0	0	0	518	512	0	703	38	0	
9	0	0	0	0	523	510	0	861	38	0	
10	0	0	0	0	521	510	0	1006	38	0	
11	0	0	0	0	517	510	0	1018	38	0	
12	0	0	0	0	504	510	0	1018	38	0	
13	0	0	0	0	497	510	0	1018	38	0	
14	0	0	0	0	493	511	0	1018	38	0	
15	0	0	0	0	498	512	0	1018	39	0	
0	0	0	0	0	497	511	0	1018	38	0	
1	0	0	0	0	511	513	0	1018	38	0	
2	0	0	0	0	515	513	0	1018	38	0	
3	0	0	0	0	508	512	0	1018	38	0	
4	0	0	0	0	496	512	0	1018	38	0	
5	0	0	0	0	494	511	0	1018	38	0	
6	0	0	0	0	522	511	0	1018	38	0	
7	0	0	0	0	530	511	0	1018	39	0	
8	0	0	0	0	522	511	0	1018	38	0	
9	0	0	0	0	520	510	0	1018	38	0	
10	0	0	0	0	514	509	0	1018	38	0	
11	0	0	0	0	512	510	0	1018	38	0	
12	0	0	0	0	514	508	0	1018	38	0	
13	0	0	0	0	510	509	0	1018	38	0	
14	0	0	0	0	502	510	0	1018	38	0	
15	0	0	0	0	506	509	0	1018	39	0	
0	0	0	0	0	503	507	0	1018	38	0	
1	0	0	0	0	499	508	0	1018	38	0	
2	0	0	0	0	504	509	0	1018	38	0	
3	0	0	0	0	513	509	0	1018	38	0	
4	0	0	0	0	521	510	0	1018	38	0	
5	0	0	0	0	521	508	0	1018	38	0	
6	0	0	0	0	510	509	0	1018	38	0	
7	0	0	0	0	487	510	0	1018	39	0	
8	0	0	0	0	486	508	0	1018	38	0	
9	0	0	0	0	486	506	0	1018	38	0	
10	0	0	0	0	512	506	0	1017	38	0	
11	0	0	0	0	532	506	0	663	38	0	
12	0	0	0	0	520	508	0	340	38	0	
13	0	0	0	0	508	508	0	0	38	0	
14	0	0	0	0	519	507	0	0	38	0	
15	0	0	0	0	523	504	0	0	39	0	
0	0	0	0	0	513	504	0	0	38	0	
1	0	0	0	0	509	505	0	0	38	0	
2	0	0	0	0	508	507	0	0	38	0	
3	0	0	0	0	506	507	0	0	38	0	
4	0	0	0	0	511	508	0	0	38	0	
5	0	0	0	0	509	508	0	0	38	0	
6	0	0	0	0	504	507	0	0	38	0	
7	0	0	0	0	500	506	0	0	39	0	
8	0	0	0	0	496	505	0	0	38	0	
9	0	0	0	0	497	506	0	0	38	0	
10	0	0	0	0	515	505	0	0	38	0	
11	0	0	0	0	527	505	0	0	38	0	
12	0	0	0	0	521	503	0	0	38	0	
13	0	0	0	0	511	503	0	0	38	0	
14	0	0	0	0	492	501	0	0	38	0	
15	0	0	0	0	496	502	0	0	39	0	
0	0	0	0	0	506	504	0	0	38	0	
1	0	0	0	0	511	504	0	0	38	0	
2	0	0	0	0	508	506	0	0	38	0	
3	0	0	0	0	504	505	0	0	38	0	
4	0	0	0	0	514	504	0	0	38	0	
5	0	0	0	0	514	505	0	0	38	0	
6	0	0	0	0	514	505	0	0	38	0	
7	0	0	0	0	506	506	0	0	39	0	
8	0	0	0	0	509	507	0	0	38	0	
9	0	0	0	0	519	507	0	0	38	0	
10	0	0	0	0	514	506	0	0	38	0	
11	0	0	0	0	510	506	0	0	38	0	
12	0	0	0	0	489	505	0	0	38	0	
13	0	0	0	0	486	505	0	201	38	0	
14	0	0	0	0	499	504	0	494	38	0	
15	0	0	0	0	518	505	0	720	39	0	
0	0	0	0	0	533	505	0	891	38	0	
1	0	0	0	0	528	506	0	863	38	0	
2	0	0	0	0	528	505	0	673	38	0	
3	0	0	0	0	489	505	0	435	38	0	
4	0	0	0	0	464	507	0	206	38	0	
5	0	0	0	0	496	508	0	35	38	0	
6	0	0	0	0	518	508	0	0	38	0	
7	0	0	0	0	521	508	0	0	39	0	
8	0	0	0	0	518	509	0	0	38	0	
9	0	0	0	0	522	509	0	0	38	0	
10	0	0	0	0	520	508	0	0	38	0	
11	0	0	0	0	511	509	0	0	38	0	
12	0	0	0	0	505	510	0	0	38	0	
13	0	0	0	0	503	510	0	0	38	0	
14	0	0	0	0	499	509	0	0	38	0	
15	0	0	0	0	513	510	0	0	39	0	
0	0	0	0	0	515	508	0	0	38	0	
1	0	0	0	0	508	509	0	0	38	0	
2	0	0	0	0	507	508	0	0	38	0	
3	0	0	0	0	513	508	0	0	38	0	
4	0	0	0	0	509	508	0	0	38	0	
5	0	0	0	0	499	508	0	0	38	0	
6	0	0	0	0	500	507	0	0	38	0	
7	0	0	0	0	505	508	0	0	39	0	
8	0	0	0	0	509	510	0	0	38	0	
9	0	0	0	0	511	508	0	0	38	0	
10	0	0	0	0	506	507	0	0	38	0	
11	0	0	0	0	507	507	0	0	38	0	
12	0	0	0	0	511	508	0	0	38	0	
13	0	0	0	0	501	509	0	0	38	0	
14	0	0	0	0	507	508	0	0	38	0	
15	0	0	0	0	498	507	0	0	39	0	
0	0	0	0	0	498	506	0	0	38	0	
1	0	0	0	0	519	506	0	0	38	0	
2	0	0	0	0	526	507	0	0	38	0	
3	0	0	0	0	523	505	0	0	38	0	
4	0	0	0	0	515	504	0	0	38	0	
5	0	0	0	0	515	505	0	0	38	0	
6	0	0	0	0	515	508	0	0	38	0	
7	0	0	0	0	506	509	0	0	39	0	
8	0	0	0	0	508	508	0	0	38	0	
9	0	0	0	0	509	508	0	0	38	0	
10	0	0	0	0	513	508	0	0	38	0	
11	0	0	0	0	515	509	0	114	38	0	
12	0	0	0	0	512	509	0	276	38	0	
13	0	0	0	0	504	508	0	343	38	0	
14	0	0	0	0	505	509	0	550	38	0	
15	0	0	0	0	503	508	0	825	39	0	
0	0	0	0	0	504	507	0	1017	38	0	
1	0	0	0	0	496	508	0	1018	38	0	
2	0	0	0	0	498	509	0	1018	38	0	
3	0	0	0	0	509	511	0	1018	38	0	
4	0	0	0	0	512	514	0	1018	38	0	
5	0	0	0	0	513	514	0	1018	38	0	
6	0	0	0	0	510	514	0	1018	38	0	
7	0	0	0	0	516	513	0	1018	39	0	
8	0	0	0	0	519	512	0	1018	38	0	
9	0	0	0	0	515	511	0	1018	38	0	
10	0	0	0	0	505	510	0	1018	38	0	
11	0	0	0	0	489	511	0	1018	38	0	
12	0	0	0	0	499	511	0	1018	38	0	
13	0	0	0	0	507	510	0	1018	38	0	
14	0	0	0	0	517	509	0	1018	38	0	
15	0	0	0	0	518	508	0	1018	39	0	
0	0	0	0	0	517	510	0	1018	38	0	
1	0	0	0	0	512	510	0	1018	38	0	
2	0	0	0	0	509	510	0	1018	38	0	
3	0	0	0	0	515	510	0	1018	38	0	
4	0	0	0	0	510	508	0	1018	38	0	
5	0	0	0	0	505	509	0	1018	38	0	
6	0	0	0	0	506	509	0	1018	38	0	
7	0	0	0	0	513	509	0	1018	39	0	
8	0	0	0	0	506	508	0	1018	38	0	
9	0	0	0	0	504	508	0	1018	38	0	
10	0	0	0	0	511	509	0	1018	38	0	
11	0	0	0	0	517	509	0	1018	38	0	
12	0	0	0	0	514	509	0	1018	38	0	
13	0	0	0	0	506	508	0	1018	38	0	
14	0	0	0	0	507	507	0	1018	38	0	
15	0	0	0	0	506	507	0	1018	39	0	
0	0	0	0	0	512	508	0	1018	38	0	
1	0	0	0	0	512	508	0	1018	38	0	
2	0	0	0	0	516	508	0	1018	38	0	
3	0	0	0	0	504	507	0	1018	38	0	
4	0	0	0	0	499	508	0	1018	38	0	
5	0	0	0	0	505	508	0	1018	38	0	
6	0	0	0	0	503	509	0	1018	38	0	
7	0	0	0	0	512	510	0	1018	39	0	
8	0	0	0	0	515	509	0	1018	38	0	
9	0	0	0	0	512	508	0	1018	38	0	
10	0	0	0	0	501	507	0	1018	38	0	
11	0	0	0	0	495	505	0	1018	38	0	
12	0	0	0	0	502	506	0	1018	38	0	
13	0	0	0	0	519	506	0	1018	38	0	
14	0	0	0	0	516	507	0	1018	38	0	
15	0	0	0	0	512	507	0	1018	39	0	
0	0	0	0	0	506	507	0	1018	38	0	
1	0	0	0	0	500	506	0	1018	38	0	
2	0	0	0	0	503	506	0	1018	38	0	
3	0	0	0	0	511	507	0	1018	38	0	
4	0	0	0	0	510	506	0	1018	38	0	
5	0	0	0	0	516	506	0	1018	38	0	
6	0	0	0	0	504	507	0	1018	38	0	
7	0	0	0	0	512	508	0	1018	39	0	
8	0	0	0	0	518	508	0	1018	38	0	
9	0	0	0	0	520	509	0	1018	38	0	
10	0	0	0	0	515	508	0	1018	38	0	
11	0	0	0	0	514	509	0	1018	38	0	
12	0	0	0	0	511	508	0	1018	38	0	
13	0	0	0	0	497	510	0	1018	38	0	
14	0	0	0	0	502	510	0	1018	38	0	
15	0	0	0	0	508	508	0	1018	39	0	
0	0	0	0	0	508	508	0	1018	38	0	
1	0	0	0	0	508	511	0	1018	38	0	
2	0	0	0	0	515	510	0	1018	38	0	
3	0	0	0	0	519	510	0	1018	38	0	
4	0	0	0	0	519	510	0	1018	38	0	
5	0	0	0	0	505	510	0	1018	38	0	
6	0	0	0	0	485	508	0	1018	38	0	
7	0	0	0	0	487	508	0	1018	39	0	
8	0	0	0	0	504	508	0	1018	38	0	
9	0	0	0	0	513	507	0	1018	38	0	
10	0	0	0	0	527	508	0	1018	38	0	
11	0	0	0	0	519	507	0	1018	38	0	
12	0	0	0	0	507	507	0	1018	38	0	
13	0	0	0	0	515	506	0	1018	38	0	
14	0	0	0	0	519	506	0	1018	38	0	
15	0	0	0	0	520	504	0	1018	39	0	
0	0	0	0	0	523	505	0	1018	38	0	
1	0	0	0	0	515	506	0	1018	38	0	
2	0	0	0	0	482	505	0	1018	38	0	
3	0	0	0	0	472	505	0	1018	38	0	
4	0	0	0	0	489	505	0	1018	38	0	
5	0	0	0	0	519	504	0	1018	38	0	
6	0	0	0	0	531	505	0	1018	38	0	
7	0	0	0	0	518	507	0	1018	39	0	
8	0	0	0	0	511	506	0	1018	38	0	
9	0	0	0	0	510	506	0	1018	38	0	
10	0	0	0	0	510	507	0	1018	38	0	
11	0	0	0	0	514	505	0	1018	38	0	
12	0	0	0	0	506	507	0	1018	38	0	
13	0	0	0	0	503	507	0	1018	38	0	
14	0	0	0	0	504	507	0	1018	38	0	
15	0	0	0	0	507	504	0	1018	39	0	
0	0	0	0	0	497	504	0	1018	38	0	
1	0	0	0	0	509	505	0	1018	38	0	
2	0	0	0	0	517	506	0	1018	38	0	
3	0	0	0	0	519	506	0	1018	38	0	
4	0	0	0	0	515	507	0	1018	38	0	
5	0	0	0	0	507	506	0	1018	38	0	
6	0	0	0	0	512	506	0	1018	38	0	
7	0	0	0	0	517	506	0	1018	39	0	
8	0	0	0	0	526	506	0	1018	38	0	
9	0	0	0	0	519	507	0	1018	38	0	
10	0	0	0	0	503	507	0	1018	38	0	
11	0	0	0	0	485	507	0	1018	38	0	
12	0	0	0	0	485	506	0	1018	38	0	
13	0	0	0	0	505	507	0	1018	38	0	
14	0	0	0	0	518	507	0	1018	38	0	
15	0	0	0	0	522	508	0	1018	39	0	
0	0	0	0	0	515	507	0	1018	38	0	
1	0	0	0	0	519	507	0	1018	38	0	
2	0	0	0	0	519	508	0	1018	38	0	
3	0	0	0	0	519	508	0	1018	38	0	
4	0	0	0	0	518	509	0	1018	38	0	
5	0	0	0	0	504	508	0	1018	38	0	
6	0	0	0	0	484	508	0	1018	38	0	
7	0	0	0	0	490	508	0	1018	39	0	
8	0	0	0	0	510	509	0	1018	38	0	
9	0	0	0	0	515	510	0	1018	38	0	
10	0	0	0	0	519	511	0	1018	38	0	
11	0	0	0	0	504	510	0	1018	38	0	
12	0	0	0	0	505	508	0	1018	38	0	
13	0	0	0	0	508	509	0	1018	38	0	
14	0	0	0	0	508	509	0	1018	38	0	
15	0	0	0	0	513	510	0	1018	39	0	
0	0	0	0	0	509	508	0	1018	38	0	
1	0	0	0	0	511	509	0	1018	38	0	
2	0	0	0	0	511	510	0	1018	38	0	
3	0	0	0	0	519	508	0	1018	38	0	
4	0	0	0	0	520	508	0	1018	38	0	
5	0	0	0	0	503	508	0	1018	38	0	
6	0	0	0	0	500	508	0	1018	38	0	
7	0	0	0	0	502	508	0	1018	39	0	
8	0	0	0	0	495	506	0	1018	38	0	
9	0	0	0	0	499	505	0	1018	38	0	
10	0	0	0	0	519	504	0	1018	38	0	
11	0	0	0	0	518	505	0	1018	38	0	
12	0	0	0	0	511	507	0	1018	38	0	
13	0	0	0	0	506	506	0	1018	38	0	
14	0	0	0	0	511	505	0	1018	38	0	
15	0	0	0	0	503	506	0	1018	39	0	
0	0	0	0	0	505	505	0	1018	38	0	
1	0	0	0	0	507	506	0	1018	38	0	
2	0	0	0	0	515	504	0	1018	38	0	
3	0	0	0	0	529	504	0	1018	38	0	
4	0	0	0	0	521	504	0	1018	38	0	
5	0	0	0	0	513	504	0	1018	38	0	
6	0	0	0	0	514	506	0	1018	38	0	
7	0	0	0	0	511	508	0	1018	39	0	
8	0	0	0	0	504	508	0	1018	38	0	
9	0	0	0	0	494	506	0	1018	38	0	
10	0	0	0	0	503	506	0	1018	38	0	
11	0	0	0	0	506	508	0	1018	38	0	
12	0	0	0	0	507	508	0	1018	38	0	
13	0	0	0	0	507	506	0	1018	38	0	
14	0	0	0	0	506	507	0	1018	38	0	
15	0	0	0	0	508	507	0	1018	39	0	
0	0	0	0	0	519	506	0	1018	38	0	
1	0	0	0	0	510	506	0	1018	38	0	
2	0	0	0	0	502	506	0	1018	38	0	
3	0	0	0	0	494	507	0	1018	38	0	
4	0	0	0	0	511	506	0	1018	38	0	
5	0	0	0	0	525	507	0	1018	38	0	
6	0	0	0	0	530	507	0	1018	38	0	
7	0	0	0	0	518	507	0	1018	39	0	
8	0	0	0	0	509	506	0	1018	38	0	
9	0	0	0	0	507	507	0	1018	38	0	
10	0	0	0	0	507	508	0	1017	38	0	
11	0	0	0	0	502	507	0	1018	38	0	
12	0	0	0	0	502	508	0	1018	38	0	
13	0	0	0	0	502	507	0	1018	38	0	
14	0	0	0	0	507	508	0	1018	38	0	
15	0	0	0	0	507	508	0	1018	39	0	
0	0	0	0	0	515	508	0	1018	38	0	
1	0	0	0	0	519	507	0	1018	38	0	
2	0	0	0	0	521	507	0	1018	38	0	
3	0	0	0	0	515	506	0	1018	38	0	
4	0	0	0	0	504	509	0	1018	38	0	
5	0	0	0	0	492	509	0	1018	38	0	
6	0	0	0	0	506	508	0	1018	38	0	
7	0	0	0	0	515	508	0	1018	39	0	
8	0	0	0	0	509	510	0	1018	38	0	
9	0	0	0	0	505	509	0	1018	38	0	
10	0	0	0	0	505	510	0	1018	38	0	
11	0	0	0	0	505	508	0	1018	38	0	
12	0	0	0	0	508	507	0	1018	38	0	
13	0	0	0	0	506	507	0	1018	38	0	
14	0	0	0	0	512	506	0	716	38	0	
15	0	0	0	0	506	506	0	89	39	0	
0	0	0	0	0	510	507	0	0	38	0	
1	0	0	0	0	503	506	0	0	38	0	
2	0	0	0	0	502	506	0	0	38	0	
3	0	0	0	0	510	507	0	0	38	0	
4	0	0	0	0	513	508	0	0	38	0	
5	0	0	0	0	517	507	0	0	38	0	
6	0	0	0	0	518	507	0	0	38	0	
7	0	0	0	0	509	506	0	0	39	0	
8	0	0	0	0	511	507	0	0	38	0	
9	0	0	0	0	519	507	0	0	38	0	
10	0	0	0	0	517	506	0	0	38	0	
11	0	0	0	0	493	508	0	0	38	0	
12	0	0	0	0	487	509	0	0	38	0	
13	0	0	0	0	496	508	0	0	38	0	
14	0	0	0	0	514	509	0	0	38	0	
15	0	0	0	0	525	508	0	0	39	0	
0	0	0	0	0	520	507	0	0	38	0	
1	0	0	0	0	514	507	0	0	38	0	
2	0	0	0	0	516	507	0	0	38	0	
3	0	0	0	0	515	508	0	0	38	0	
4	0	0	0	0	507	507	0	0	38	0	
5	0	0	0	0	505	508	0	0	38	0	
6	0	0	0	0	506	507	0	0	38	0	
7	0	0	0	0	505	507	0	0	39	0	
8	0	0	0	0	507	507	0	0	38	0	
9	0	0	0	0	511	506	0	0	38	0	
10	0	0	0	0	510	506	0	0	38	0	
11	0	0	0	0	509	506	0	0	38	0	
12	0	0	0	0	504	505	0	0	38	0	
13	0	0	0	0	500	507	0	0	38	0	
14	0	0	0	0	501	508	0	0	38	0	
15	0	0	0	0	508	508	0	0	39	0	
0	0	0	0	0	517	507	0	0	38	0	
1	0	0	0	0	510	507	0	0	38	0	
2	0	0	0	0	515	507	0	0	38	0	
3	0	0	0	0	516	506	0	0	38	0	
4	0	0	0	0	511	507	0	0	38	0	
5	0	0	0	0	515	506	0	0	38	0	
6	0	0	0	0	504	506	0	0	38	0	
7	0	0	0	0	505	507	0	0	39	0	
8	0	0	0	0	519	506	0	0	38	0	
9	0	0	0	0	495	506	0	0	38	0	
10	0	0	0	0	488	507	0	0	38	0	
11	0	0	0	0	497	508	0	0	38	0	
12	0	0	0	0	508	508	0	0	38	0	
13	0	0	0	0	509	506	0	0	38	0	
14	0	0	0	0	514	507	0	0	38	0	
15	0	0	0	0	513	508	0	0	39	0	
0	0	0	0	0	512	508	0	0	38	0	
1	0	0	0	0	522	508	0	0	38	0	
2	0	0	0	0	514	510	0	0	38	0	
3	0	0	0	0	512	510	0	0	38	0	
4	0	0	0	0	515	509	0	0	38	0	
5	0	0	0	0	515	508	0	0	38	0	
6	0	0	0	0	503	508	0	0	38	0	
7	0	0	0	0	497	508	0	0	39	0	
8	0	0	0	0	507	506	0	0	38	0	
9	0	0	0	0	516	505	0	0	38	0	
10	0	0	0	0	503	505	0	0	38	0	
11	0	0	0	0	502	505	0	0	38	0	
12	0	0	0	0	513	506	0	0	38	0	
13	0	0	0	0	514	506	0	0	38	0	
14	0	0	0	0	514	505	0	0	38	0	
15	0	0	0	0	514	506	0	0	39	0	
0	0	0	0	0	505	505	0	0	38	0	
1	0	0	0	0	504	504	0	0	38	0	
2	0	0	0	0	505	505	0	0	38	0	
3	0	0	0	0	509	505	0	0	38	0	
4	0	0	0	0	512	505	0	0	38	0	
5	0	0	0	0	510	507	0	0	38	0	
6	0	0	0	0	507	509	0	0	38	0	
7	0	0	0	0	507	508	0	0	39	0	
8	0	0	0	0	503	509	0	0	38	0	
9	0	0	0	0	505	508	0	0	38	0	
10	0	0	0	0	506	508	0	0	38	0	
11	0	0	0	0	511	507	0	0	38	0	
12	0	0	0	0	517	507	0	0	38	0	
13	0	0	0	0	515	507	0	0	38	0	
14	0	0	0	0	510	507	0	0	38	0	
15	0	0	0	0	503	508	0	0	39	0	
0	0	0	0	0	502	508	0	0	38	0	
1	0	0	0	0	511	508	0	0	38	0	
2	0	0	0	0	516	508	0	0	38	0	
3	0	0	0	0	514	507	0	0	38	0	
4	0	0	0	0	502	509	0	0	38	0	
5	0	0	0	0	492	509	0	0	38	0	
6	0	0	0	0	500	507	0	0	38	0	
7	0	0	0	0	520	508	0	0	39	0	
8	0	0	0	0	524	508	0	0	38	0	
9	0	0	0	0	525	507	0	0	38	0	
10	0	0	0	0	512	505	0	0	38	0	
11	0	0	0	0	489	505	0	0	38	0	
12	0	0	0	0	491	505	0	0	38	0	
13	0	0	0	0	486	505	0	0	38	0	
14	0	0	0	0	502	505	0	0	38	0	
15	0	0	0	0	512	506	0	0	39	0	
0	0	0	0	0	514	507	0	0	38	0	
1	0	0	0	0	517	505	0	0	38	0	
2	0	0	0	0	524	506	0	0	38	0	
3	0	0	0	0	515	506	0	0	38	0	
4	0	0	0	0	509	507	0	0	38	0	
5	0	0	0	0	506	506	0	0	38	0	
6	0	0	0	0	505	507	0	0	38	0	
7	0	0	0	0	513	507	0	0	39	0	
8	0	0	0	0	513	507	0	0	38	0	
9	0	0	0	0	511	509	0	0	38	0	
10	0	0	0	0	515	508	0	0	38	0	
11	0	0	0	0	509	509	0	0	38	0	
12	0	0	0	0	503	509	0	0	38	0	
13	0	0	0	0	503	509	0	0	38	0	
14	0	0	0	0	504	509	0	0	38	0	
15	0	0	0	0	506	510	0	0	39	0	
0	0	0	0	0	505	511	0	0	38	0	
1	0	0	0	0	508	511	0	0	38	0	
2	0	0	0	0	515	510	0	0	38	0	
3	0	0	0	0	516	510	0	0	38	0	
4	0	0	0	0	515	510	0	0	38	0	
5	0	0	0	0	512	510	0	0	38	0	
6	0	0	0	0	514	508	0	0	38	0	
7	0	0	0	0	508	508	0	0	39	0	
8	0	0	0	0	510	509	0	0	38	0	
9	0	0	0	0	508	508	0	0	38	0	
10	0	0	0	0	507	508	0	0	38	0	
11	0	0	0	0	505	509	0	0	38	0	
12	0	0	0	0	506	509	0	0	38	0	
13	0	0	0	0	513	508	0	0	38	0	
14	0	0	0	0	514	508	0	0	38	0	
15	0	0	0	0	504	505	0	0	39	0	
0	0	0	0	0	498	508	0	0	38	0	
1	0	0	0	0	510	509	0	0	38	0	
2	0	0	0	0	509	508	0	0	38	0	
3	0	0	0	0	505	508	0	0	38	0	
4	0	0	0	0	508	509	0	0	38	0	
5	0	0	0	0	507	510	0	0	38	0	
6	0	0	0	0	513	511	0	0	38	0	
7	0	0	0	0	499	510	0	0	39	0	
8	0	0	0	0	497	512	0	0	38	0	
9	0	0	0	0	519	513	0	0	38	0	
10	0	0	0	0	516	513	0	0	38	0	
11	0	0	0	0	521	512	0	0	38	0	
12	0	0	0	0	512	512	0	348	38	0	
13	0	0	0	0	506	511	0	921	38	0	
14	0	0	0	0	504	513	0	1018	38	0	
15	0	0	0	0	508	514	0	1018	39	0	
0	0	0	0	0	511	512	0	1018	38	0	
1	0	0	0	0	520	512	0	1018	38	0	
2	0	0	0	0	512	509	0	1018	38	0	
3	0	0	0	0	511	508	0	1018	38	0	
4	0	0	0	0	511	510	0	1018	38	0	
5	0	0	0	0	506	510	0	1018	38	0	
6	0	0	0	0	500	510	0	1018	38	0	
7	0	0	0	0	497	509	0	1018	39	0	
8	0	0	0	0	511	508	0	1018	38	0	
9	0	0	0	0	513	508	0	1018	38	0	
10	0	0	0	0	506	508	0	1018	38	0	
11	0	0	0	0	505	508	0	1018	38	0	
12	0	0	0	0	517	508	0	1018	38	0	
13	0	0	0	0	512	509	0	1018	38	0	
14	0	0	0	0	508	510	0	1018	38	0	
15	0	0	0	0	510	511	0	1018	39	0	
0	0	0	0	0	498	511	0	1018	38	0	
1	0	0	0	0	503	510	0	1018	38	0	
2	0	0	0	0	511	508	0	1018	38	0	
3	0	0	0	0	516	508	0	1018	38	0	
4	0	0	0	0	514	507	0	1018	38	0	
5	0	0	0	0	511	507	0	1018	38	0	
6	0	0	0	0	510	508	0	1018	38	0	
7	0	0	0	0	503	507	0	1018	39	0	
8	0	0	0	0	499	507	0	1018	38	0	
9	0	0	0	0	506	507	0	1018	38	0	
10	0	0	0	0	504	506	0	1018	38	0	
11	0	0	0	0	511	507	0	1018	38	0	
12	0	0	0	0	512	505	0	1018	38	0	
13	0	0	0	0	519	507	0	1018	38	0	
14	0	0	0	0	508	506	0	1018	38	0	
15	0	0	0	0	516	506	0	1018	39	0	
0	0	0	0	0	517	505	0	1018	38	0	
1	0	0	0	0	519	507	0	1018	38	0	
2	0	0	0	0	517	507	0	1018	38	0	
3	0	0	0	0	495	507	0	786	38	0	
4	0	0	0	0	504	508	0	420	38	0	
5	0	0	0	0	506	508	0	7	38	0	
6	0	0	0	0	496	508	0	0	38	0	
7	0	0	0	0	504	509	0	0	39	0	
8	0	0	0	0	508	509	0	0	38	0	
9	0	0	0	0	519	509	0	0	38	0	
10	0	0	0	0	520	508	0	0	38	0	
11	0	0	0	0	516	508	0	0	38	0	
12	0	0	0	0	510	508	0	0	38	0	
13	0	0	0	0	508	509	0	0	38	0	
14	0	0	0	0	511	508	0	0	38	0	
15	0	0	0	0	507	505	0	0	39	0	
0	0	0	0	0	502	507	0	0	38	0	
1	0	0	0	0	499	506	0	0	38	0	
2	0	0	0	0	502	508	0	0	38	0	
3	0	0	0	0	515	507	0	0	38	0	
4	0	0	0	0	514	506	0	0	38	0	
5	0	0	0	0	513	507	0	0	38	0	
6	0	0	0	0	517	508	0	0	38	0	
7	0	0	0	0	511	509	0	0	39	0	
8	0	0	0	0	509	509	0	0	38	0	
9	0	0	0	0	512	508	0	0	38	0	
10	0	0	0	0	513	508	0	0	38	0	
11	0	0	0	0	504	508	0	0	38	0	
12	0	0	0	0	502	509	0	0	38	0	
13	0	0	0	0	518	508	0	0	38	0	
14	0	0	0	0	515	508	0	0	38	0	
15	0	0	0	0	498	506	0	0	39	0	
0	0	0	0	0	497	504	0	0	38	0	
1	0	0	0	0	509	507	0	0	38	0	
2	0	0	0	0	495	507	0	0	38	0	
3	0	0	0	0	494	507	0	0	38	0	
4	0	0	0	0	509	507	0	0	38	0	
5	0	0	0	0	515	506	0	0	38	0	
6	0	0	0	0	513	508	0	0	38	0	
7	0	0	0	0	526	508	0	0	39	0	
8	0	0	0	0	515	508	0	0	38	0	
9	0	0	0	0	501	507	0	0	38	0	
10	0	0	0	0	503	508	0	0	38	0	
11	0	0	0	0	500	509	0	0	38	0	
12	0	0	0	0	508	508	0	0	38	0	
13	0	0	0	0	515	507	0	0	38	0	
14	0	0	0	0	521	505	0	0	38	0	
15	0	0	0	0	513	507	0	0	39	0	
0	0	0	0	0	515	507	0	0	38	0	
1	0	0	0	0	511	507	0	0	38	0	
2	0	0	0	0	501	506	0	0	38	0	
3	0	0	0	0	504	504	0	0	38	0	
4	0	0	0	0	507	503	0	0	38	0	
5	0	0	0	0	511	504	0	0	38	0	
6	0	0	0	0	505	505	0	0	38	0	
7	0	0	0	0	510	504	0	0	39	0	
8	0	0	0	0	508	506	0	0	38	0	
9	0	0	0	0	507	507	0	0	38	0	
10	0	0	0	0	499	507	0	0	38	0	
11	0	0	0	0	505	505	0	0	38	0	
12	0	0	0	0	507	505	0	0	38	0	
13	0	0	0	0	508	507	0	0	38	0	
14	0	0	0	0	508	507	0	0	38	0	
15	0	0	0	0	512	506	0	0	39	0	
0	0	0	0	0	512	504	0	0	38	0	
1	0	0	0	0	515	503	0	0	38	0	
2	0	0	0	0	511	504	0	0	38	0	
3	0	0	0	0	502	504	0	0	38	0	
4	0	0	0	0	508	505	0	0	38	0	
5	0	0	0	0	517	506	0	0	38	0	
6	0	0	0	0	510	506	0	0	38	0	
7	0	0	0	0	508	506	0	0	39	0	
8	0	0	0	0	515	505	0	0	38	0	
9	0	0	0	0	511	505	0	0	38	0	
10	0	0	0	0	511	506	0	543	38	0	
11	0	0	0	0	508	508	0	1013	38	0	
12	0	0	0	0	507	509	0	1018	38	0	
13	0	0	0	0	515	510	0	1018	38	0	
14	0	0	0	0	510	510	0	1018	38	0	
15	0	0	0	0	510	509	0	1018	39	0	
0	0	0	0	0	510	508	0	1018	38	0	
1	0	0	0	0	506	507	0	1018	38	0	
2	0	0	0	0	507	507	0	1018	38	0	
3	0	0	0	0	505	506	0	1018	38	0	
4	0	0	0	0	505	508	0	1018	38	0	
5	0	0	0	0	516	507	0	1018	38	0	
6	0	0	0	0	512	506	0	1018	38	0	
7	0	0	0	0	511	508	0	1018	39	0	
8	0	0	0	0	511	508	0	1018	38	0	
9	0	0	0	0	508	507	0	1018	38	0	
10	0	0	0	0	497	506	0	1018	38	0	
11	0	0	0	0	494	507	0	1018	38	0	
12	0	0	0	0	511	505	0	1018	38	0	
13	0	0	0	0	518	506	0	1018	38	0	
14	0	0	0	0	514	507	0	1018	38	0	
15	0	0	0	0	516	508	0	1018	39	0	
0	0	0	0	0	518	507	0	1018	38	0	
1	0	0	0	0	504	509	0	1018	38	0	
2	0	0	0	0	497	509	0	1018	38	0	
3	0	0	0	0	508	511	0	1018	38	0	
4	0	0	0	0	506	510	0	1018	38	0	
5	0	0	0	0	510	508	0	1018	38	0	
6	0	0	0	0	515	507	0	1018	38	0	
7	0	0	0	0	509	506	0	1018	39	0	
8	0	0	0	0	509	505	0	1018	38	0	
9	0	0	0	0	511	505	0	1018	38	0	
10	0	0	0	0	511	505	0	1018	38	0	
11	0	0	0	0	512	504	0	1018	38	0	
12	0	0	0	0	511	507	0	1018	38	0	
13	0	0	0	0	505	508	0	1018	38	0	
14	0	0	0	0	507	508	0	1018	38	0	
15	0	0	0	0	511	509	0	1016	39	0	
0	0	0	0	0	516	510	0	824	38	0	
1	0	0	0	0	514	511	0	957	38	0	
2	0	0	0	0	500	509	0	1018	38	0	
3	0	0	0	0	504	508	0	1018	38	0	
4	0	0	0	0	502	509	0	1018	38	0	
5	0	0	0	0	504	510	0	1018	38	0	
6	0	0	0	0	506	509	0	1018	38	0	
7	0	0	0	0	515	509	0	1018	39	0	
8	0	0	0	0	512	509	0	1018	38	0	
9	0	0	0	0	515	510	0	1018	38	0	
10	0	0	0	0	510	510	0	1018	38	0	
11	0	0	0	0	507	508	0	1018	38	0	
12	0	0	0	0	505	508	0	1018	38	0	
13	0	0	0	0	512	508	0	1018	38	0	
14	0	0	0	0	515	508	0	1018	38	0	
15	0	0	0	0	517	507	0	1018	39	0	
0	0	0	0	0	510	508	0	1018	38	0	
1	0	0	0	0	513	507	0	1018	38	0	
2	0	0	0	0	505	507	0	1018	38	0	
3	0	0	0	0	499	505	0	1018	38	0	
4	0	0	0	0	497	506	0	1018	38	0	
5	0	0	0	0	505	506	0	1018	38	0	
6	0	0	0	0	512	507	0	1018	38	0	
7	0	0	0	0	509	508	0	1018	39	0	
8	0	0	0	0	517	510	0	1018	38	0	
9	0	0	0	0	524	509	0	1018	38	0	
10	0	0	0	0	506	510	0	1018	38	0	
11	0	0	0	0	498	510	0	1018	38	0	
12	0	0	0	0	492	510	0	1018	38	0	
13	0	0	0	0	497	510	0	1018	38	0	
14	0	0	0	0	516	510	0	1018	38	0	
15	0	0	0	0	512	508	0	1018	39	0	
0	0	0	0	0	518	509	0	1018	38	0	
1	0	0	0	0	526	508	0	1018	38	0	
2	0	0	0	0	525	509	0	1018	38	0	
3	0	0	0	0	515	508	0	1018	38	0	
4	0	0	0	0	510	507	0	1018	38	0	
5	0	0	0	0	510	507	0	1018	38	0	
6	0	0	0	0	501	508	0	1018	38	0	
7	0	0	0	0	503	508	0	1018	39	0	
8	0	0	0	0	507	508	0	1018	38	0	
9	0	0	0	0	502	508	0	1018	38	0	
10	0	0	0	0	499	509	0	1018	38	0	
11	0	0	0	0	496	507	0	1018	38	0	
12	0	0	0	0	510	507	0	1018	38	0	
13	0	0	0	0	519	508	0	1018	38	0	
14	0	0	0	0	516	508	0	1018	38	0	
15	0	0	0	0	514	509	0	1018	39	0	
0	0	0	0	0	508	508	0	1018	38	0	
1	0	0	0	0	509	508	0	1018	38	0	
2	0	0	0	0	518	508	0	1018	38	0	
3	0	0	0	0	517	509	0	1018	38	0	
4	0	0	0	0	508	510	0	1018	38	0	
5	0	0	0	0	506	509	0	1018	38	0	
6	0	0	0	0	502	510	0	1018	38	0	
7	0	0	0	0	508	509	0	808	39	0	
8	0	0	0	0	513	509	0	597	38	0	
9	0	0	0	0	516	508	0	447	38	0	
10	0	0	0	0	503	508	0	235	38	0	
11	0	0	0	0	492	511	0	15	38	0	
12	0	0	0	0	500	508	0	0	38	0	
13	0	0	0	0	509	509	0	0	38	0	
14	0	0	0	0	521	507	0	0	38	0	
15	0	0	0	0	524	507	0	0	39	0	
0	0	0	0	0	506	507	0	0	38	0	
1	0	0	0	0	500	508	0	0	38	0	
2	0	0	0	0	509	508	0	0	38	0	
3	0	0	0	0	499	508	0	0	38	0	
4	0	0	0	0	505	507	0	0	38	0	
5	0	0	0	0	510	508	0	0	38	0	
6	0	0	0	0	513	505	0	0	38	0	
7	0	0	0	0	511	507	0	0	39	0	
8	0	0	0	0	515	506	0	0	38	0	
9	0	0	0	0	515	507	0	0	38	0	
10	0	0	0	0	516	509	0	0	38	0	
11	0	0	0	0	508	510	0	0	38	0	
12	0	0	0	0	494	512	0	0	38	0	
13	0	0	0	0	504	513	0	0	38	0	
14	0	0	0	0	515	511	0	0	38	0	
15	0	0	0	0	519	511	0	0	39	0	
0	0	0	0	0	517	511	0	0	38	0	
1	0	0	0	0	499	509	0	0	38	0	
2	0	0	0	0	495	510	0	0	38	0	
3	0	0	0	0	505	509	0	0	38	0	
4	0	0	0	0	507	510	0	0	38	0	
5	0	0	0	0	515	512	0	0	38	0	
6	0	0	0	0	519	514	0	0	38	0	
7	0	0	0	0	514	511	0	158	39	0	
8	0	0	0	0	505	510	0	532	38	0	
9	0	0	0	0	511	510	0	913	38	0	
10	0	0	0	0	499	510	0	1017	38	0	
11	0	0	0	0	501	509	0	1018	38	0	
12	0	0	0	0	502	509	0	1018	38	0	
13	0	0	0	0	508	509	0	1018	38	0	
14	0	0	0	0	511	509	0	1018	38	0	
15	0	0	0	0	520	510	0	1018	39	0	
0	0	0	0	0	521	508	0	1018	38	0	
1	0	0	0	0	514	508	0	1018	38	0	
2	0	0	0	0	518	508	0	1018	38	0	
3	0	0	0	0	515	509	0	1018	38	0	
4	0	0	0	0	505	509	0	1018	38	0	
5	0	0	0	0	503	508	0	1018	38	0	
6	0	0	0	0	512	510	0	1018	38	0	
7	0	0	0	0	510	509	0	1018	39	0	
8	0	0	0	0	504	507	0	1018	38	0	
9	0	0	0	0	501	508	0	1018	38	0	
10	0	0	0	0	499	509	0	1018	38	0	
11	0	0	0	0	508	508	0	1018	38	0	
12	0	0	0	0	508	507	0	1018	38	0	
13	0	0	0	0	512	509	0	1018	38	0	
14	0	0	0	0	511	510	0	1018	38	0	
15	0	0	0	0	504	510	0	1018	39	0	
0	0	0	0	0	511	510	0	1018	38	0	
1	0	0	0	0	515	509	0	1018	38	0	
2	0	0	0	0	511	509	0	1018	38	0	
3	0	0	0	0	509	509	0	1018	38	0	
4	0	0	0	0	509	510	0	1018	38	0	
5	0	0	0	0	505	510	0	1018	38	0	
6	0	0	0	0	512	509	0	1018	38	0	
7	0	0	0	0	518	509	0	1018	39	0	
8	0	0	0	0	522	510	0	1018	38	0	
9	0	0	0	0	511	510	0	1018	38	0	
10	0	0	0	0	501	510	0	1018	38	0	
11	0	0	0	0	500	509	0	1018	38	0	
12	0	0	0	0	505	508	0	1018	38	0	
13	0	0	0	0	512	508	0	1018	38	0	
14	0	0	0	0	513	507	0	1018	38	0	
15	0	0	0	0	505	507	0	1018	39	0	
0	0	0	0	0	510	506	0	1018	38	0	
1	0	0	0	0	508	507	0	1018	38	0	
2	0	0	0	0	509	508	0	1018	38	0	
3	0	0	0	0	511	509	0	1018	38	0	
4	0	0	0	0	511	509	0	1018	38	0	
5	0	0	0	0	518	509	0	1018	38	0	
6	0	0	0	0	525	509	0	1018	38	0	
7	0	0	0	0	522	509	0	1018	39	0	
8	0	0	0	0	512	508	0	1018	38	0	
9	0	0	0	0	509	508	0	1018	38	0	
10	0	0	0	0	502	508	0	1018	38	0	
11	0	0	0	0	492	507	0	1018	38	0	
12	0	0	0	0	482	506	0	1018	38	0	
13	0	0	0	0	485	507	0	1018	38	0	
14	0	0	0	0	505	508	0	1017	38	0	
15	0	0	0	0	518	507	0	668	39	0	
0	0	0	0	0	521	505	0	212	38	0	
1	0	0	0	0	521	507	0	0	38	0	
2	0	0	0	0	511	508	0	0	38	0	
3	0	0	0	0	503	509	0	0	38	0	
4	0	0	0	0	503	508	0	0	38	0	
5	0	0	0	0	508	510	0	0	38	0	
6	0	0	0	0	516	511	0	0	38	0	
7	0	0	0	0	515	510	0	0	39	0	
8	0	0	0	0	511	508	0	0	38	0	
9	0	0	0	0	501	507	0	0	38	0	
10	0	0	0	0	504	508	0	0	38	0	
11	0	0	0	0	510	508	0	0	38	0	
12	0	0	0	0	514	509	0	0	38	0	
13	0	0	0	0	511	510	0	0	38	0	
14	0	0	0	0	516	508	0	0	38	0	
15	0	0	0	0	504	509	0	0	39	0	
0	0	0	0	0	491	508	0	0	38	0	
1	0	0	0	0	503	510	0	0	38	0	
2	0	0	0	0	513	508	0	0	38	0	
3	0	0	0	0	508	508	0	0	38	0	
4	0	0	0	0	517	508	0	0	38	0	
5	0	0	0	0	521	508	0	340	38	0	
6	0	0	0	0	518	509	0	693	38	0	
7	0	0	0	0	520	510	0	1018	39	0	
8	0	0	0	0	521	510	0	1018	38	0	
9	0	0	0	0	517	510	0	1018	38	0	
10	0	0	0	0	509	510	0	1018	38	0	
11	0	0	0	0	503	511	0	1018	38	0	
12	0	0	0	0	505	510	0	1018	38	0	
13	0	0	0	0	508	511	0	1018	38	0	
14	0	0	0	0	502	510	0	1018	38	0	
15	0	0	0	0	509	509	0	1018	39	0	
0	0	0	0	0	514	509	0	1018	38	0	
1	0	0	0	0	502	508	0	1018	38	0	
2	0	0	0	0	494	507	0	1018	38	0	
3	0	0	0	0	499	505	0	1018	38	0	
4	0	0	0	0	498	506	0	1018	38	0	
5	0	0	0	0	510	507	0	1018	38	0	
6	0	0	0	0	523	504	0	1018	38	0	
7	0	0	0	0	522	503	0	1018	39	0	
8	0	0	0	0	516	503	0	1018	38	0	
9	0	0	0	0	502	504	0	1018	38	0	
10	0	0	0	0	494	504	0	1018	38	0	
11	0	0	0	0	498	504	0	1017	38	0	
12	0	0	0	0	507	504	0	1018	38	0	
13	0	0	0	0	508	503	0	1018	38	0	
14	0	0	0	0	517	504	0	1018	38	0	
15	0	0	0	0	517	505	0	1018	39	0	
0	0	0	0	0	519	504	0	879	38	0	
1	0	0	0	0	514	505	0	668	38	0	
2	0	0	0	0	515	507	0	411	38	0	
3	0	0	0	0	512	506	0	145	38	0	
4	0	0	0	0	504	507	0	0	38	0	
5	0	0	0	0	500	506	0	0	38	0	
6	0	0	0	0	500	505	0	0	38	0	
7	0	0	0	0	507	506	0	0	39	0	
8	0	0	0	0	511	508	0	0	38	0	
9	0	0	0	0	509	508	0	0	38	0	
10	0	0	0	0	509	508	0	0	38	0	
11	0	0	0	0	508	507	0	0	38	0	
12	0	0	0	0	506	507	0	0	38	0	
13	0	0	0	0	500	508	0	0	38	0	
14	0	0	0	0	510	506	0	0	38	0	
15	0	0	0	0	521	505	0	0	39	0	
0	0	0	0	0	520	505	0	0	38	0	
1	0	0	0	0	518	506	0	0	38	0	
2	0	0	0	0	512	509	0	0	38	0	
3	0	0	0	0	507	509	0	0	38	0	
4	0	0	0	0	513	511	0	0	38	0	
5	0	0	0	0	508	510	0	0	38	0	
6	0	0	0	0	507	511	0	0	38	0	
7	0	0	0	0	507	510	0	0	39	0	
8	0	0	0	0	503	509	0	0	38	0	
9	0	0	0	0	506	508	0	0	38	0	
10	0	0	0	0	520	507	0	0	38	0	
11	0	0	0	0	507	507	0	0	38	0	
12	0	0	0	0	510	507	0	0	38	0	
13	0	0	0	0	501	506	0	0	38	0	
14	0	0	0	0	495	507	0	0	38	0	
15	0	0	0	0	491	507	0	0	39	0	
0	0	0	0	0	515	508	0	0	38	0	
1	0	0	0	0	515	507	0	0	38	0	
2	0	0	0	0	517	508	0	0	38	0	
3	0	0	0	0	515	508	0	0	38	0	
4	0	0	0	0	515	508	0	0	38	0	
5	0	0	0	0	516	508	0	0	38	0	
6	0	0	0	0	516	508	0	0	38	0	
7	0	0	0	0	511	508	0	0	39	0	
8	0	0	0	0	504	508	0	0	38	0	
9	0	0	0	0	499	506	0	0	38	0	
10	0	0	0	0	494	508	0	0	38	0	
11	0	0	0	0	488	507	0	0	38	0	
12	0	0	0	0	498	507	0	0	38	0	
13	0	0	0	0	515	508	0	0	38	0	
14	0	0	0	0	506	506	0	0	38	0	
15	0	0	0	0	519	507	0	0	39	0	
0	0	0	0	0	523	505	0	0	38	0	
1	0	0	0	0	511	507	0	0	38	0	
2	0	0	0	0	511	507	0	0	38	0	
3	0	0	0	0	513	504	0	0	38	0	
4	0	0	0	0	514	507	0	0	38	0	
5	0	0	0	0	509	507	0	0	38	0	
6	0	0	0	0	498	508	0	0	38	0	
7	0	0	0	0	505	507	0	0	39	0	
8	0	0	0	0	511	506	0	0	38	0	
9	0	0	0	0	512	507	0	163	38	0	
10	0	0	0	0	507	509	0	441	38	0	
11	0	0	0	0	504	509	0	714	38	0	
12	0	0	0	0	509	508	0	928	38	0	
13	0	0	0	0	505	507	0	1018	38	0	
14	0	0	0	0	511	507	0	1018	38	0	
15	0	0	0	0	519	507	0	1018	39	0	
0	0	0	0	0	512	506	0	1018	38	0	
1	0	0	0	0	504	507	0	1018	38	0	
2	0	0	0	0	510	509	0	1018	38	0	
3	0	0	0	0	512	508	0	1018	38	0	
4	0	0	0	0	510	507	0	1018	38	0	
5	0	0	0	0	504	508	0	1018	38	0	
6	0	0	0	0	513	506	0	1018	38	0	
7	0	0	0	0	515	505	0	1018	39	0	
8	0	0	0	0	506	507	0	1018	38	0	
9	0	0	0	0	501	508	0	1018	38	0	
10	0	0	0	0	504	508	0	1018	38	0	
11	0	0	0	0	511	507	0	1018	38	0	
12	0	0	0	0	515	507	0	1018	38	0	
13	0	0	0	0	506	508	0	1018	38	0	
14	0	0	0	0	511	509	0	1018	38	0	
15	0	0	0	0	508	508	0	1018	39	0	
0	0	0	0	0	508	508	0	1018	38	0	
1	0	0	0	0	509	508	0	1018	38	0	
2	0	0	0	0	516	507	0	1018	38	0	
3	0	0	0	0	519	505	0	1018	38	0	
4	0	0	0	0	511	505	0	1018	38	0	
5	0	0	0	0	512	504	0	1017	38	0	
6	0	0	0	0	513	506	0	892	38	0	
7	0	0	0	0	510	507	0	871	39	0	
8	0	0	0	0	517	507	0	813	38	0	
9	0	0	0	0	523	506	0	831	38	0	
10	0	0	0	0	504	505	0	771	38	0	
11	0	0	0	0	499	505	0	776	38	0	
12	0	0	0	0	483	506	0	907	38	0	
13	0	0	0	0	487	506	0	1016	38	0	
14	0	0	0	0	496	507	0	1018	38	0	
15	0	0	0	0	510	507	0	1018	39	0	
0	0	0	0	0	512	508	0	1018	38	0	
1	0	0	0	0	511	509	0	1018	38	0	
2	0	0	0	0	514	508	0	1018	38	0	
3	0	0	0	0	512	508	0	1018	38	0	
4	0	0	0	0	516	509	0	1018	38	0	
5	0	0	0	0	507	509	0	1018	38	0	
6	0	0	0	0	516	509	0	1018	38	0	
7	0	0	0	0	522	510	0	1018	39	0	
8	0	0	0	0	519	509	0	1018	38	0	
9	0	0	0	0	509	508	0	1018	38	0	
10	0	0	0	0	507	507	0	1018	38	0	
11	0	0	0	0	498	507	0	1018	38	0	
12	0	0	0	0	505	506	0	1018	38	0	
13	0	0	0	0	507	505	0	1018	38	0	
14	0	0	0	0	508	506	0	1018	38	0	
15	0	0	0	0	507	508	0	1018	39	0	
0	0	0	0	0	510	507	0	1018	38	0	
1	0	0	0	0	508	507	0	1018	38	0	
2	0	0	0	0	507	508	0	1018	38	0	
3	0	0	0	0	506	508	0	1018	38	0	
4	0	0	0	0	513	508	0	1018	38	0	
5	0	0	0	0	515	508	0	1018	38	0	
6	0	0	0	0	517	508	0	1018	38	0	
7	0	0	0	0	511	509	0	1018	39	0	
8	0	0	0	0	509	509	0	1018	38	0	
9	0	0	0	0	512	509	0	1018	38	0	
10	0	0	0	0	513	509	0	1018	38	0	
11	0	0	0	0	506	511	0	1018	38	0	
12	0	0	0	0	507	511	0	1018	38	0	
13	0	0	0	0	507	511	0	1018	38	0	
14	0	0	0	0	508	510	0	1018	38	0	
15	0	0	0	0	514	509	0	1018	39	0	
0	0	0	0	0	513	508	0	1018	38	0	
1	0	0	0	0	513	510	0	1018	38	0	
2	0	0	0	0	513	510	0	1018	38	0	
3	0	0	0	0	496	509	0	1018	38	0	
4	0	0	0	0	497	508	0	1018	38	0	
5	0	0	0	0	505	508	0	1018	38	0	
6	0	0	0	0	517	509	0	1018	38	0	
7	0	0	0	0	512	510	0	1018	39	0	
8	0	0	0	0	510	510	0	1018	38	0	
9	0	0	0	0	513	510	0	1018	38	0	
10	0	0	0	0	503	510	0	1018	38	0	
11	0	0	0	0	499	508	0	1018	38	0	
12	0	0	0	0	506	507	0	1018	38	0	
13	0	0	0	0	515	508	0	1018	38	0	
14	0	0	0	0	514	508	0	1018	38	0	
15	0	0	0	0	517	507	0	666	39	0	
0	0	0	0	0	507	510	0	294	38	0	
1	0	0	0	0	508	510	0	37	38	0	
2	0	0	0	0	513	510	0	0	38	0	
3	0	0	0	0	513	510	0	0	38	0	
4	0	0	0	0	512	509	0	0	38	0	
5	0	0	0	0	516	508	0	0	38	0	
6	0	0	0	0	512	508	0	0	38	0	
7	0	0	0	0	504	508	0	0	39	0	
8	0	0	0	0	492	508	0	0	38	0	
9	0	0	0	0	504	509	0	0	38	0	
10	0	0	0	0	508	508	0	0	38	0	
11	0	0	0	0	516	507	0	0	38	0	
12	0	0	0	0	515	507	0	0	38	0	
13	0	0	0	0	511	508	0	0	38	0	
14	0	0	0	0	512	508	0	0	38	0	
15	0	0	0	0	511	510	0	0	39	0	
