# OpenSignals Text File Format. Version 1
# {"98:D3:61:FD:78:31": {"position": 0, "device": "bitalino_rev", "device name": "98:D3:61:FD:78:31", "device connection": "BTH98:D3:61:FD:78:31", "sampling rate": 1000, "resolution": [4, 1, 1, 1, 1, 10, 10, 10, 10, 6, 6], "firmware version": 1282, "comments": "", "keywords": "", "mode": 0, "sync interval": 2, "date": "2024-4-12", "time": "10:31:39.508", "channels": [1, 2, 3, 4, 5, 6], "sensor": ["RAW", "RAW", "RAW", "RAW", "RAW", "RAW"], "label": ["A1", "A2", "A3", "A4", "A5", "A6"], "column": ["nSeq", "I1", "I2", "O1", "O2", "A1", "A2", "A3", "A4", "A5", "A6"], "special": [{}, {}, {}, {}, {}, {}], "digital IO": [0, 0, 1, 1], "convertedValues": 0}}
# EndOfHeader
0	0	0	0	0	498	505	0	572	38	1	
1	0	0	0	0	511	505	0	696	38	1	
2	0	0	0	0	519	506	0	863	38	1	
3	0	0	0	0	519	505	0	1017	38	1	
4	0	0	0	0	521	508	0	1017	38	1	
5	0	0	0	0	512	508	0	1018	38	1	
6	0	0	0	0	506	508	0	1018	38	1	
7	0	0	0	0	496	508	0	1018	39	1	
8	0	0	0	0	500	508	0	1018	38	1	
9	0	0	0	0	514	506	0	1018	38	1	
10	0	0	0	0	524	504	0	1018	38	1	
11	0	0	0	0	535	505	0	1018	38	1	
12	0	0	0	0	536	508	0	1018	38	1	
13	0	0	0	0	520	507	0	1018	38	1	
14	0	0	0	0	510	507	0	1018	38	1	
15	0	0	0	0	510	505	0	1018	39	1	
0	0	0	0	0	498	504	0	1018	38	1	
1	0	0	0	0	472	504	0	1018	38	1	
2	0	0	0	0	480	502	0	1018	38	1	
3	0	0	0	0	496	504	0	1018	38	1	
4	0	0	0	0	514	507	0	1018	38	1	
5	0	0	0	0	528	509	0	1018	38	1	
6	0	0	0	0	509	509	0	1018	38	1	
7	0	0	0	0	480	510	0	1018	39	1	
8	0	0	0	0	484	511	0	1018	38	1	
9	0	0	0	0	513	509	0	1018	38	1	
10	0	0	0	0	517	510	0	1018	38	1	
11	0	0	0	0	513	509	0	1018	38	1	
12	0	0	0	0	502	510	0	1018	38	1	
13	0	0	0	0	519	508	0	531	38	1	
14	0	0	0	0	519	508	0	16	38	1	
15	0	0	0	0	510	508	0	0	39	1	
0	0	0	0	0	516	507	0	0	38	1	
1	0	0	0	0	523	505	0	0	38	1	
2	0	0	0	0	517	505	0	0	38	1	
3	0	0	0	0	514	504	0	0	38	1	
4	0	0	0	0	510	505	0	0	38	1	
5	0	0	0	0	515	505	0	0	38	1	
6	0	0	0	0	517	504	0	0	38	1	
7	0	0	0	0	516	506	0	0	39	1	
8	0	0	0	0	531	507	0	0	38	1	
9	0	0	0	0	511	508	0	17	38	1	
10	0	0	0	0	491	506	0	54	38	1	
11	0	0	0	0	487	508	0	211	38	1	
12	0	0	0	0	495	508	0	428	38	1	
13	0	0	0	0	500	508	0	713	38	1	
14	0	0	0	0	503	506	0	1018	38	1	
15	0	0	0	0	510	504	0	1018	39	1	
0	0	0	0	0	505	505	0	1018	38	1	
1	0	0	0	0	502	504	0	1018	38	1	
2	0	0	0	0	504	503	0	1018	38	1	
3	0	0	0	0	504	505	0	1018	38	1	
4	0	0	0	0	509	506	0	1018	38	1	
5	0	0	0	0	511	508	0	1018	38	1	
6	0	0	0	0	518	509	0	1018	38	1	
7	0	0	0	0	541	508	0	1018	39	1	
8	0	0	0	0	551	507	0	1018	38	1	
9	0	0	0	0	557	506	0	1018	38	1	
10	0	0	0	0	553	507	0	1018	38	1	
11	0	0	0	0	541	508	0	937	38	1	
12	0	0	0	0	512	507	0	551	38	1	
13	0	0	0	0	472	506	0	294	38	1	
14	0	0	0	0	429	507	0	55	38	1	
15	0	0	0	0	424	506	0	0	39	1	
0	0	0	0	0	469	506	0	0	38	1	
1	0	0	0	0	521	505	0	0	38	1	
2	0	0	0	0	536	504	0	0	38	1	
3	0	0	0	0	535	504	0	270	38	1	
4	0	0	0	0	516	505	0	417	38	1	
5	0	0	0	0	501	507	0	503	38	1	
6	0	0	0	0	495	508	0	483	38	1	
7	0	0	0	0	497	508	0	302	39	1	
8	0	0	0	0	523	510	0	0	38	1	
9	0	0	0	0	531	510	0	0	38	1	
10	0	0	0	0	532	510	0	0	38	1	
11	0	0	0	0	509	510	0	0	38	1	
12	0	0	0	0	480	509	0	0	38	1	
13	0	0	0	0	457	510	0	0	38	1	
14	0	0	0	0	468	511	0	0	38	1	
15	0	0	0	0	504	510	0	0	39	1	
0	0	0	0	0	511	509	0	0	38	1	
1	0	0	0	0	513	508	0	0	38	1	
2	0	0	0	0	522	508	0	0	38	1	
3	0	0	0	0	525	506	0	0	38	1	
4	0	0	0	0	528	505	0	0	38	1	
5	0	0	0	0	525	505	0	0	38	1	
6	0	0	0	0	520	506	0	0	38	1	
7	0	0	0	0	519	507	0	0	39	1	
8	0	0	0	0	519	507	0	0	38	1	
9	0	0	0	0	519	509	0	0	38	1	
10	0	0	0	0	523	508	0	0	38	1	
11	0	0	0	0	522	506	0	0	38	1	
12	0	0	0	0	512	505	0	0	38	1	
13	0	0	0	0	521	506	0	0	38	1	
14	0	0	0	0	502	508	0	0	38	1	
15	0	0	0	0	485	508	0	0	39	1	
0	0	0	0	0	489	508	0	0	38	1	
1	0	0	0	0	493	507	0	0	38	1	
2	0	0	0	0	484	507	0	0	38	1	
3	0	0	0	0	499	507	0	0	38	1	
4	0	0	0	0	512	506	0	0	38	1	
5	0	0	0	0	516	506	0	447	38	1	
6	0	0	0	0	515	507	0	827	38	1	
7	0	0	0	0	512	508	0	1018	39	1	
8	0	0	0	0	512	509	0	1018	38	1	
9	0	0	0	0	513	508	0	1018	38	1	
10	0	0	0	0	509	508	0	1018	38	1	
11	0	0	0	0	512	507	0	1018	38	1	
12	0	0	0	0	511	506	0	1018	38	1	
13	0	0	0	0	512	507	0	1018	38	1	
14	0	0	0	0	510	508	0	1018	38	1	
15	0	0	0	0	510	508	0	1018	39	1	
0	0	0	0	0	519	509	0	1018	38	1	
1	0	0	0	0	523	507	0	1018	38	1	
2	0	0	0	0	517	507	0	1017	38	1	
3	0	0	0	0	516	508	0	851	38	1	
4	0	0	0	0	515	506	0	895	38	1	
5	0	0	0	0	505	506	0	1018	38	1	
6	0	0	0	0	502	506	0	1018	38	1	
7	0	0	0	0	504	507	0	1018	39	1	
8	0	0	0	0	512	508	0	1018	38	1	
9	0	0	0	0	498	508	0	1018	38	1	
10	0	0	0	0	464	510	0	1018	38	1	
11	0	0	0	0	467	510	0	1018	38	1	
12	0	0	0	0	499	510	0	1018	38	1	
13	0	0	0	0	515	509	0	1018	38	1	
14	0	0	0	0	514	509	0	1018	38	1	
15	0	0	0	0	524	509	0	1018	39	1	
0	0	0	0	0	520	510	0	777	38	1	
1	0	0	0	0	526	509	0	567	38	1	
2	0	0	0	0	517	508	0	332	38	1	
3	0	0	0	0	509	507	0	83	38	1	
4	0	0	0	0	508	506	0	0	38	1	
5	0	0	0	0	508	504	0	0	38	1	
6	0	0	0	0	508	505	0	0	38	1	
7	0	0	0	0	511	505	0	0	39	1	
8	0	0	0	0	514	505	0	552	38	1	
9	0	0	0	0	520	507	0	1017	38	1	
10	0	0	0	0	519	507	0	1018	38	1	
11	0	0	0	0	523	510	0	1018	38	1	
12	0	0	0	0	532	510	0	1018	38	1	
13	0	0	0	0	529	509	0	1018	38	1	
14	0	0	0	0	527	511	0	1018	38	1	
15	0	0	0	0	509	510	0	1018	39	1	
0	0	0	0	0	493	509	0	911	38	1	
1	0	0	0	0	494	509	0	242	38	1	
2	0	0	0	0	503	508	0	0	38	1	
3	0	0	0	0	523	507	0	0	38	1	
4	0	0	0	0	520	507	0	0	38	1	
5	0	0	0	0	491	509	0	0	38	1	
6	0	0	0	0	476	508	0	0	38	1	
7	0	0	0	0	480	507	0	0	39	1	
8	0	0	0	0	481	508	0	0	38	1	
9	0	0	0	0	498	508	0	0	38	1	
10	0	0	0	0	509	508	0	0	38	1	
11	0	0	0	0	514	509	0	0	38	1	
12	0	0	0	0	508	508	0	0	38	1	
13	0	0	0	0	515	508	0	0	38	1	
14	0	0	0	0	506	509	0	0	38	1	
15	0	0	0	0	502	508	0	0	39	1	
0	0	0	0	0	504	506	0	0	38	1	
1	0	0	0	0	509	505	0	0	38	1	
2	0	0	0	0	513	507	0	0	38	1	
3	0	0	0	0	509	508	0	0	38	1	
4	0	0	0	0	513	510	0	0	38	1	
5	0	0	0	0	518	509	0	0	38	1	
6	0	0	0	0	524	507	0	0	38	1	
7	0	0	0	0	526	506	0	0	39	1	
8	0	0	0	0	521	506	0	0	38	1	
9	0	0	0	0	516	506	0	0	38	1	
10	0	0	0	0	512	509	0	0	38	1	
11	0	0	0	0	514	507	0	0	38	1	
12	0	0	0	0	512	508	0	0	38	1	
13	0	0	0	0	518	508	0	0	38	1	
14	0	0	0	0	504	509	0	0	38	1	
15	0	0	0	0	503	508	0	0	39	1	
0	0	0	0	0	500	508	0	0	38	1	
1	0	0	0	0	495	508	0	0	38	1	
2	0	0	0	0	507	509	0	0	38	1	
3	0	0	0	0	510	509	0	0	38	1	
4	0	0	0	0	501	509	0	0	38	1	
5	0	0	0	0	493	510	0	0	38	1	
6	0	0	0	0	487	510	0	0	38	1	
7	0	0	0	0	482	510	0	0	39	1	
8	0	0	0	0	497	512	0	0	38	1	
9	0	0	0	0	508	510	0	0	38	1	
10	0	0	0	0	511	510	0	0	38	1	
11	0	0	0	0	520	510	0	0	38	1	
12	0	0	0	0	524	510	0	0	38	1	
13	0	0	0	0	522	510	0	0	38	1	
14	0	0	0	0	519	510	0	0	38	1	
15	0	0	0	0	518	510	0	0	39	1	
0	0	0	0	0	520	508	0	183	38	1	
1	0	0	0	0	526	508	0	455	38	1	
2	0	0	0	0	530	509	0	521	38	1	
3	0	0	0	0	533	508	0	535	38	1	
4	0	0	0	0	525	509	0	584	38	1	
5	0	0	0	0	522	510	0	700	38	1	
6	0	0	0	0	517	511	0	921	38	1	
7	0	0	0	0	508	512	0	1018	39	1	
8	0	0	0	0	503	510	0	1018	38	1	
9	0	0	0	0	499	509	0	1018	38	1	
10	0	0	0	0	504	508	0	1018	38	1	
11	0	0	0	0	507	508	0	1018	38	1	
12	0	0	0	0	511	508	0	1018	38	1	
13	0	0	0	0	498	508	0	1018	38	1	
14	0	0	0	0	499	509	0	1018	38	1	
15	0	0	0	0	496	508	0	1018	39	1	
0	0	0	0	0	494	508	0	1018	38	1	
1	0	0	0	0	495	510	0	1018	38	1	
2	0	0	0	0	497	508	0	1018	38	1	
3	0	0	0	0	506	508	0	1018	38	1	
4	0	0	0	0	521	509	0	1018	38	1	
5	0	0	0	0	514	508	0	1018	38	1	
6	0	0	0	0	504	508	0	1018	38	1	
7	0	0	0	0	500	506	0	1018	39	1	
8	0	0	0	0	487	504	0	1018	38	1	
9	0	0	0	0	495	504	0	1018	38	1	
10	0	0	0	0	514	504	0	1018	38	1	
11	0	0	0	0	508	506	0	1018	38	1	
12	0	0	0	0	496	508	0	1018	38	1	
13	0	0	0	0	487	508	0	1018	38	1	
14	0	0	0	0	491	507	0	1018	38	1	
15	0	0	0	0	512	508	0	1018	39	1	
0	0	0	0	0	523	509	0	1018	38	1	
1	0	0	0	0	534	508	0	1018	38	1	
2	0	0	0	0	542	508	0	1018	38	1	
3	0	0	0	0	534	509	0	1018	38	1	
4	0	0	0	0	516	509	0	1018	38	1	
5	0	0	0	0	506	511	0	1017	38	1	
6	0	0	0	0	504	510	0	768	38	1	
7	0	0	0	0	504	506	0	532	39	1	
8	0	0	0	0	508	506	0	383	38	1	
9	0	0	0	0	500	505	0	368	38	1	
10	0	0	0	0	503	504	0	615	38	1	
11	0	0	0	0	501	504	0	942	38	1	
12	0	0	0	0	512	508	0	1018	38	1	
13	0	0	0	0	521	508	0	1018	38	1	
14	0	0	0	0	526	508	0	1018	38	1	
15	0	0	0	0	519	510	0	1018	39	1	
0	0	0	0	0	524	509	0	1018	38	1	
1	0	0	0	0	525	509	0	1018	38	1	
2	0	0	0	0	517	511	0	1018	38	1	
3	0	0	0	0	513	510	0	1018	38	1	
4	0	0	0	0	505	510	0	1017	38	1	
5	0	0	0	0	490	508	0	823	38	1	
6	0	0	0	0	481	508	0	831	38	1	
7	0	0	0	0	504	508	0	908	39	1	
8	0	0	0	0	535	509	0	880	38	1	
9	0	0	0	0	527	510	0	975	38	1	
10	0	0	0	0	505	508	0	1018	38	1	
11	0	0	0	0	496	508	0	1018	38	1	
12	0	0	0	0	504	508	0	1018	38	1	
13	0	0	0	0	505	510	0	1018	38	1	
14	0	0	0	0	499	512	0	1018	38	1	
15	0	0	0	0	497	511	0	1018	39	1	
0	0	0	0	0	504	511	0	1018	38	1	
1	0	0	0	0	516	510	0	1018	38	1	
2	0	0	0	0	520	510	0	1018	38	1	
3	0	0	0	0	517	511	0	1018	38	1	
4	0	0	0	0	515	510	0	1018	38	1	
5	0	0	0	0	512	509	0	1018	38	1	
6	0	0	0	0	496	508	0	1018	38	1	
7	0	0	0	0	496	506	0	1018	39	1	
8	0	0	0	0	500	506	0	899	38	1	
9	0	0	0	0	505	505	0	579	38	1	
10	0	0	0	0	504	503	0	400	38	1	
11	0	0	0	0	504	500	0	309	38	1	
12	0	0	0	0	492	504	0	331	38	1	
13	0	0	0	0	492	503	0	471	38	1	
14	0	0	0	0	500	502	0	711	38	1	
15	0	0	0	0	512	504	0	997	39	1	
0	0	0	0	0	520	505	0	1018	38	1	
1	0	0	0	0	524	506	0	1018	38	1	
2	0	0	0	0	524	507	0	1018	38	1	
3	0	0	0	0	521	506	0	1018	38	1	
4	0	0	0	0	512	506	0	1018	38	1	
5	0	0	0	0	508	508	0	1018	38	1	
6	0	0	0	0	503	508	0	1018	38	1	
7	0	0	0	0	505	508	0	1017	39	1	
8	0	0	0	0	516	508	0	1017	38	1	
9	0	0	0	0	532	508	0	785	38	1	
10	0	0	0	0	541	505	0	591	38	1	
11	0	0	0	0	539	505	0	485	38	1	
12	0	0	0	0	529	507	0	505	38	1	
13	0	0	0	0	510	507	0	698	38	1	
14	0	0	0	0	479	507	0	961	38	1	
15	0	0	0	0	472	508	0	1018	39	1	
0	0	0	0	0	506	510	0	1018	38	1	
1	0	0	0	0	518	510	0	1018	38	1	
2	0	0	0	0	523	508	0	1018	38	1	
3	0	0	0	0	512	506	0	1018	38	1	
4	0	0	0	0	489	507	0	1018	38	1	
5	0	0	0	0	477	506	0	1018	38	1	
6	0	0	0	0	474	506	0	1018	38	1	
7	0	0	0	0	501	506	0	1018	39	1	
8	0	0	0	0	510	505	0	1018	38	1	
9	0	0	0	0	510	504	0	1018	38	1	
10	0	0	0	0	503	505	0	1018	38	1	
11	0	0	0	0	507	506	0	1018	38	1	
12	0	0	0	0	515	507	0	1018	38	1	
13	0	0	0	0	515	504	0	1018	38	1	
14	0	0	0	0	521	505	0	1018	38	1	
15	0	0	0	0	526	507	0	1018	39	1	
0	0	0	0	0	518	508	0	1018	38	1	
1	0	0	0	0	500	509	0	1018	38	1	
2	0	0	0	0	499	511	0	1018	38	1	
3	0	0	0	0	508	510	0	1018	38	1	
4	0	0	0	0	482	510	0	1018	38	1	
5	0	0	0	0	484	508	0	1017	38	1	
6	0	0	0	0	515	507	0	308	38	1	
7	0	0	0	0	523	507	0	0	39	1	
8	0	0	0	0	523	507	0	0	38	1	
9	0	0	0	0	524	507	0	0	38	1	
10	0	0	0	0	528	506	0	0	38	1	
11	0	0	0	0	524	503	0	0	38	1	
12	0	0	0	0	516	503	0	0	38	1	
13	0	0	0	0	519	503	0	0	38	1	
14	0	0	0	0	516	504	0	0	38	1	
15	0	0	0	0	515	507	0	0	39	1	
0	0	0	0	0	524	507	0	0	38	1	
1	0	0	0	0	526	510	0	0	38	1	
2	0	0	0	0	526	512	0	0	38	1	
3	0	0	0	0	510	512	0	0	38	1	
4	0	0	0	0	480	511	0	0	38	1	
5	0	0	0	0	462	511	0	0	38	1	
6	0	0	0	0	476	509	0	0	38	1	
7	0	0	0	0	503	509	0	0	39	1	
8	0	0	0	0	500	510	0	0	38	1	
9	0	0	0	0	509	510	0	0	38	1	
10	0	0	0	0	518	510	0	0	38	1	
11	0	0	0	0	513	507	0	0	38	1	
12	0	0	0	0	522	505	0	0	38	1	
13	0	0	0	0	523	506	0	0	38	1	
14	0	0	0	0	508	507	0	253	38	1	
15	0	0	0	0	511	505	0	748	39	1	
0	0	0	0	0	524	507	0	1018	38	1	
1	0	0	0	0	513	507	0	1017	38	1	
2	0	0	0	0	498	508	0	1018	38	1	
3	0	0	0	0	498	511	0	1018	38	1	
4	0	0	0	0	500	509	0	1018	38	1	
5	0	0	0	0	515	510	0	1018	38	1	
6	0	0	0	0	532	510	0	1018	38	1	
7	0	0	0	0	519	511	0	1018	39	1	
8	0	0	0	0	503	510	0	1018	38	1	
9	0	0	0	0	480	509	0	1018	38	1	
10	0	0	0	0	472	510	0	1018	38	1	
11	0	0	0	0	490	509	0	1018	38	1	
12	0	0	0	0	510	508	0	1018	38	1	
13	0	0	0	0	522	507	0	1018	38	1	
14	0	0	0	0	522	507	0	1018	38	1	
15	0	0	0	0	516	505	0	1018	39	1	
0	0	0	0	0	513	507	0	1018	38	1	
1	0	0	0	0	505	507	0	1018	38	1	
2	0	0	0	0	499	507	0	1018	38	1	
3	0	0	0	0	508	507	0	1018	38	1	
4	0	0	0	0	518	508	0	1018	38	1	
5	0	0	0	0	527	507	0	1018	38	1	
6	0	0	0	0	527	508	0	1018	38	1	
7	0	0	0	0	515	506	0	443	39	1	
8	0	0	0	0	506	504	0	0	38	1	
9	0	0	0	0	502	504	0	0	38	1	
10	0	0	0	0	504	505	0	0	38	1	
11	0	0	0	0	515	506	0	0	38	1	
12	0	0	0	0	510	507	0	0	38	1	
13	0	0	0	0	508	507	0	0	38	1	
14	0	0	0	0	508	505	0	0	38	1	
15	0	0	0	0	505	505	0	0	39	1	
0	0	0	0	0	500	508	0	0	38	1	
1	0	0	0	0	500	508	0	0	38	1	
2	0	0	0	0	500	509	0	0	38	1	
3	0	0	0	0	512	509	0	0	38	1	
4	0	0	0	0	515	510	0	0	38	1	
5	0	0	0	0	507	511	0	0	38	1	
6	0	0	0	0	505	510	0	0	38	1	
7	0	0	0	0	500	509	0	0	39	1	
8	0	0	0	0	501	508	0	0	38	1	
9	0	0	0	0	505	508	0	0	38	1	
10	0	0	0	0	508	508	0	0	38	1	
11	0	0	0	0	516	510	0	0	38	1	
12	0	0	0	0	524	508	0	0	38	1	
13	0	0	0	0	526	508	0	0	38	1	
14	0	0	0	0	526	507	0	0	38	1	
15	0	0	0	0	521	509	0	0	39	1	
0	0	0	0	0	514	509	0	259	38	1	
1	0	0	0	0	499	508	0	824	38	1	
2	0	0	0	0	500	511	0	1018	38	1	
3	0	0	0	0	512	511	0	1018	38	1	
4	0	0	0	0	514	511	0	1018	38	1	
5	0	0	0	0	512	511	0	1018	38	1	
6	0	0	0	0	513	511	0	1018	38	1	
7	0	0	0	0	515	510	0	1018	39	1	
8	0	0	0	0	525	510	0	1018	38	1	
9	0	0	0	0	529	510	0	1018	38	1	
10	0	0	0	0	535	510	0	1018	38	1	
11	0	0	0	0	532	509	0	1018	38	1	
12	0	0	0	0	513	508	0	913	38	1	
13	0	0	0	0	484	506	0	527	38	1	
14	0	0	0	0	459	507	0	231	38	1	
15	0	0	0	0	450	506	0	0	39	1	
0	0	0	0	0	463	507	0	0	38	1	
1	0	0	0	0	478	505	0	0	38	1	
2	0	0	0	0	497	505	0	0	38	1	
3	0	0	0	0	496	507	0	134	38	1	
4	0	0	0	0	509	507	0	263	38	1	
5	0	0	0	0	516	508	0	283	38	1	
6	0	0	0	0	514	508	0	160	38	1	
7	0	0	0	0	527	508	0	0	39	1	
8	0	0	0	0	533	507	0	0	38	1	
9	0	0	0	0	532	508	0	0	38	1	
10	0	0	0	0	538	508	0	0	38	1	
11	0	0	0	0	544	508	0	0	38	1	
12	0	0	0	0	521	508	0	0	38	1	
13	0	0	0	0	506	507	0	0	38	1	
14	0	0	0	0	503	507	0	0	38	1	
15	0	0	0	0	515	507	0	0	39	1	
0	0	0	0	0	504	506	0	0	38	1	
1	0	0	0	0	498	507	0	0	38	1	
2	0	0	0	0	492	508	0	0	38	1	
3	0	0	0	0	496	508	0	0	38	1	
4	0	0	0	0	501	506	0	0	38	1	
5	0	0	0	0	509	509	0	0	38	1	
6	0	0	0	0	515	508	0	0	38	1	
7	0	0	0	0	519	510	0	240	39	1	
8	0	0	0	0	517	511	0	293	38	1	
9	0	0	0	0	521	509	0	390	38	1	
10	0	0	0	0	516	508	0	483	38	1	
11	0	0	0	0	513	509	0	572	38	1	
12	0	0	0	0	500	509	0	661	38	1	
13	0	0	0	0	501	509	0	595	38	1	
14	0	0	0	0	504	509	0	416	38	1	
15	0	0	0	0	487	507	0	137	39	1	
0	0	0	0	0	496	508	0	0	38	1	
1	0	0	0	0	514	507	0	0	38	1	
2	0	0	0	0	516	506	0	0	38	1	
3	0	0	0	0	516	507	0	0	38	1	
4	0	0	0	0	510	508	0	0	38	1	
5	0	0	0	0	504	509	0	0	38	1	
6	0	0	0	0	504	510	0	0	38	1	
7	0	0	0	0	512	510	0	0	39	1	
8	0	0	0	0	511	509	0	0	38	1	
9	0	0	0	0	522	509	0	0	38	1	
10	0	0	0	0	527	509	0	0	38	1	
11	0	0	0	0	516	509	0	0	38	1	
12	0	0	0	0	506	507	0	0	38	1	
13	0	0	0	0	505	507	0	0	38	1	
14	0	0	0	0	504	506	0	0	38	1	
15	0	0	0	0	503	505	0	0	39	1	
0	0	0	0	0	500	504	0	0	38	1	
1	0	0	0	0	502	504	0	0	38	1	
2	0	0	0	0	507	503	0	0	38	1	
3	0	0	0	0	504	503	0	0	38	1	
4	0	0	0	0	499	504	0	0	38	1	
5	0	0	0	0	499	504	0	0	38	1	
6	0	0	0	0	512	505	0	0	38	1	
7	0	0	0	0	525	507	0	0	39	1	
8	0	0	0	0	526	509	0	0	38	1	
9	0	0	0	0	510	510	0	0	38	1	
10	0	0	0	0	494	508	0	0	38	1	
11	0	0	0	0	489	506	0	0	38	1	
12	0	0	0	0	488	505	0	0	38	1	
13	0	0	0	0	494	505	0	0	38	1	
14	0	0	0	0	515	505	0	0	38	1	
15	0	0	0	0	520	506	0	0	39	1	
0	0	0	0	0	512	506	0	0	38	1	
1	0	0	0	0	510	506	0	0	38	1	
2	0	0	0	0	519	504	0	0	38	1	
3	0	0	0	0	531	504	0	0	38	1	
4	0	0	0	0	527	504	0	0	38	1	
5	0	0	0	0	517	505	0	0	38	1	
6	0	0	0	0	524	505	0	0	38	1	
7	0	0	0	0	525	505	0	0	39	1	
8	0	0	0	0	517	507	0	0	38	1	
9	0	0	0	0	515	508	0	0	38	1	
10	0	0	0	0	519	508	0	0	38	1	
11	0	0	0	0	524	507	0	0	38	1	
12	0	0	0	0	515	508	0	0	38	1	
13	0	0	0	0	495	507	0	0	38	1	
14	0	0	0	0	497	509	0	0	38	1	
15	0	0	0	0	486	508	0	0	39	1	
0	0	0	0	0	471	506	0	0	38	1	
1	0	0	0	0	464	505	0	0	38	1	
2	0	0	0	0	463	505	0	0	38	1	
3	0	0	0	0	488	504	0	0	38	1	
4	0	0	0	0	500	502	0	0	38	1	
5	0	0	0	0	514	503	0	0	38	1	
6	0	0	0	0	526	504	0	0	38	1	
7	0	0	0	0	534	507	0	0	39	1	
8	0	0	0	0	533	508	0	0	38	1	
9	0	0	0	0	522	510	0	0	38	1	
10	0	0	0	0	515	509	0	0	38	1	
11	0	0	0	0	511	509	0	0	38	1	
12	0	0	0	0	522	508	0	0	38	1	
13	0	0	0	0	515	508	0	0	38	1	
14	0	0	0	0	518	508	0	0	38	1	
15	0	0	0	0	521	508	0	0	39	1	
0	0	0	0	0	518	507	0	0	38	1	
1	0	0	0	0	505	509	0	0	38	1	
2	0	0	0	0	504	507	0	0	38	1	
3	0	0	0	0	499	507	0	0	38	1	
4	0	0	0	0	499	507	0	0	38	1	
5	0	0	0	0	508	507	0	0	38	1	
6	0	0	0	0	516	508	0	0	38	1	
7	0	0	0	0	494	506	0	0	39	1	
8	0	0	0	0	487	506	0	0	38	1	
9	0	0	0	0	492	508	0	287	38	1	
10	0	0	0	0	494	507	0	412	38	1	
11	0	0	0	0	519	507	0	400	38	1	
12	0	0	0	0	516	507	0	312	38	1	
13	0	0	0	0	516	508	0	172	38	1	
14	0	0	0	0	511	507	0	72	38	1	
15	0	0	0	0	504	505	0	0	39	1	
0	0	0	0	0	518	508	0	0	38	1	
1	0	0	0	0	525	508	0	0	38	1	
2	0	0	0	0	536	508	0	0	38	1	
3	0	0	0	0	531	507	0	0	38	1	
4	0	0	0	0	515	507	0	0	38	1	
5	0	0	0	0	497	506	0	0	38	1	
6	0	0	0	0	486	505	0	0	38	1	
7	0	0	0	0	489	505	0	0	39	1	
8	0	0	0	0	486	504	0	292	38	1	
9	0	0	0	0	492	506	0	364	38	1	
10	0	0	0	0	504	508	0	280	38	1	
11	0	0	0	0	510	508	0	17	38	1	
12	0	0	0	0	516	509	0	0	38	1	
13	0	0	0	0	515	509	0	0	38	1	
14	0	0	0	0	510	509	0	0	38	1	
15	0	0	0	0	515	508	0	0	39	1	
0	0	0	0	0	518	507	0	0	38	1	
1	0	0	0	0	520	508	0	0	38	1	
2	0	0	0	0	515	508	0	0	38	1	
3	0	0	0	0	511	509	0	0	38	1	
4	0	0	0	0	518	508	0	0	38	1	
5	0	0	0	0	519	506	0	0	38	1	
6	0	0	0	0	522	505	0	0	38	1	
7	0	0	0	0	513	505	0	0	39	1	
8	0	0	0	0	513	505	0	0	38	1	
9	0	0	0	0	511	506	0	0	38	1	
10	0	0	0	0	502	507	0	0	38	1	
11	0	0	0	0	495	508	0	0	38	1	
12	0	0	0	0	481	508	0	0	38	1	
13	0	0	0	0	481	509	0	0	38	1	
14	0	0	0	0	494	510	0	0	38	1	
15	0	0	0	0	502	509	0	0	39	1	
0	0	0	0	0	497	510	0	0	38	1	
1	0	0	0	0	504	510	0	0	38	1	
2	0	0	0	0	513	510	0	0	38	1	
3	0	0	0	0	512	508	0	0	38	1	
4	0	0	0	0	515	508	0	0	38	1	
5	0	0	0	0	516	508	0	0	38	1	
6	0	0	0	0	513	506	0	0	38	1	
7	0	0	0	0	510	503	0	0	39	1	
8	0	0	0	0	514	504	0	0	38	1	
9	0	0	0	0	526	506	0	290	38	1	
10	0	0	0	0	532	508	0	310	38	1	
11	0	0	0	0	537	509	0	262	38	1	
12	0	0	0	0	538	510	0	204	38	1	
13	0	0	0	0	537	510	0	226	38	1	
14	0	0	0	0	517	508	0	302	38	1	
15	0	0	0	0	502	508	0	383	39	1	
0	0	0	0	0	490	509	0	622	38	1	
1	0	0	0	0	483	508	0	796	38	1	
2	0	0	0	0	475	509	0	747	38	1	
3	0	0	0	0	481	511	0	617	38	1	
4	0	0	0	0	496	509	0	417	38	1	
5	0	0	0	0	497	506	0	262	38	1	
6	0	0	0	0	500	504	0	184	38	1	
7	0	0	0	0	510	504	0	206	39	1	
8	0	0	0	0	529	504	0	384	38	1	
9	0	0	0	0	531	504	0	568	38	1	
10	0	0	0	0	516	505	0	770	38	1	
11	0	0	0	0	497	506	0	1014	38	1	
12	0	0	0	0	489	508	0	1018	38	1	
13	0	0	0	0	502	510	0	1018	38	1	
14	0	0	0	0	501	511	0	1017	38	1	
15	0	0	0	0	503	510	0	1018	39	1	
0	0	0	0	0	507	511	0	1018	38	1	
1	0	0	0	0	515	511	0	1017	38	1	
2	0	0	0	0	513	509	0	1018	38	1	
3	0	0	0	0	517	508	0	1018	38	1	
4	0	0	0	0	519	507	0	1018	38	1	
5	0	0	0	0	518	508	0	1018	38	1	
6	0	0	0	0	524	507	0	1018	38	1	
7	0	0	0	0	517	507	0	1018	39	1	
8	0	0	0	0	514	506	0	1018	38	1	
9	0	0	0	0	508	505	0	1018	38	1	
10	0	0	0	0	506	508	0	1018	38	1	
11	0	0	0	0	496	509	0	1018	38	1	
12	0	0	0	0	489	510	0	1018	38	1	
13	0	0	0	0	481	510	0	1018	38	1	
14	0	0	0	0	493	510	0	1018	38	1	
15	0	0	0	0	515	508	0	1018	39	1	
0	0	0	0	0	534	508	0	1018	38	1	
1	0	0	0	0	526	507	0	1018	38	1	
2	0	0	0	0	519	506	0	1018	38	1	
3	0	0	0	0	513	506	0	1018	38	1	
4	0	0	0	0	510	506	0	1018	38	1	
5	0	0	0	0	512	507	0	1018	38	1	
6	0	0	0	0	515	505	0	1018	38	1	
7	0	0	0	0	517	505	0	1018	39	1	
8	0	0	0	0	510	505	0	1018	38	1	
9	0	0	0	0	492	504	0	1018	38	1	
10	0	0	0	0	504	505	0	1018	38	1	
11	0	0	0	0	512	507	0	1018	38	1	
12	0	0	0	0	512	508	0	1018	38	1	
13	0	0	0	0	508	508	0	1018	38	1	
14	0	0	0	0	512	508	0	1018	38	1	
15	0	0	0	0	512	509	0	1018	39	1	
0	0	0	0	0	503	510	0	1018	38	1	
1	0	0	0	0	504	509	0	1018	38	1	
2	0	0	0	0	511	508	0	1018	38	1	
3	0	0	0	0	513	509	0	1018	38	1	
4	0	0	0	0	507	510	0	1018	38	1	
5	0	0	0	0	508	511	0	1018	38	1	
6	0	0	0	0	512	509	0	510	38	1	
7	0	0	0	0	513	506	0	316	39	1	
8	0	0	0	0	511	507	0	335	38	1	
9	0	0	0	0	504	506	0	405	38	1	
10	0	0	0	0	499	506	0	475	38	1	
11	0	0	0	0	502	507	0	723	38	1	
12	0	0	0	0	503	505	0	953	38	1	
13	0	0	0	0	507	508	0	1017	38	1	
14	0	0	0	0	513	509	0	1018	38	1	
15	0	0	0	0	520	509	0	1018	39	1	
0	0	0	0	0	537	508	0	1018	38	1	
1	0	0	0	0	542	508	0	1018	38	1	
2	0	0	0	0	537	507	0	1018	38	1	
3	0	0	0	0	531	507	0	1018	38	1	
4	0	0	0	0	509	507	0	1018	38	1	
5	0	0	0	0	477	508	0	1018	38	1	
6	0	0	0	0	462	507	0	1018	38	1	
7	0	0	0	0	461	504	0	1018	39	1	
8	0	0	0	0	485	504	0	1018	38	1	
9	0	0	0	0	495	504	0	1018	38	1	
10	0	0	0	0	497	504	0	1018	38	1	
11	0	0	0	0	511	505	0	1018	38	1	
12	0	0	0	0	523	508	0	1018	38	1	
13	0	0	0	0	519	506	0	1018	38	1	
14	0	0	0	0	507	507	0	1018	38	1	
15	0	0	0	0	505	509	0	1018	39	1	
0	0	0	0	0	508	508	0	1018	38	1	
1	0	0	0	0	516	508	0	1018	38	1	
2	0	0	0	0	525	509	0	1018	38	1	
3	0	0	0	0	534	510	0	1018	38	1	
4	0	0	0	0	542	511	0	1017	38	1	
5	0	0	0	0	528	510	0	812	38	1	
6	0	0	0	0	522	509	0	588	38	1	
7	0	0	0	0	506	508	0	516	39	1	
8	0	0	0	0	483	508	0	636	38	1	
9	0	0	0	0	496	509	0	964	38	1	
10	0	0	0	0	510	508	0	1018	38	1	
11	0	0	0	0	500	510	0	1018	38	1	
12	0	0	0	0	494	509	0	1018	38	1	
13	0	0	0	0	497	509	0	1018	38	1	
14	0	0	0	0	493	508	0	1018	38	1	
15	0	0	0	0	503	508	0	1018	39	1	
0	0	0	0	0	536	507	0	1018	38	1	
1	0	0	0	0	543	507	0	1018	38	1	
2	0	0	0	0	533	508	0	1018	38	1	
3	0	0	0	0	518	508	0	1018	38	1	
4	0	0	0	0	516	507	0	1018	38	1	
5	0	0	0	0	502	507	0	1018	38	1	
6	0	0	0	0	486	506	0	1018	38	1	
7	0	0	0	0	476	504	0	1018	39	1	
8	0	0	0	0	487	504	0	1018	38	1	
9	0	0	0	0	506	503	0	1018	38	1	
10	0	0	0	0	516	503	0	1018	38	1	
11	0	0	0	0	523	504	0	1018	38	1	
12	0	0	0	0	510	504	0	1018	38	1	
13	0	0	0	0	502	505	0	1018	38	1	
14	0	0	0	0	512	506	0	1018	38	1	
15	0	0	0	0	516	508	0	1018	39	1	
0	0	0	0	0	516	509	0	1018	38	1	
1	0	0	0	0	508	510	0	1018	38	1	
2	0	0	0	0	510	512	0	1018	38	1	
3	0	0	0	0	527	511	0	1018	38	1	
4	0	0	0	0	521	510	0	1018	38	1	
5	0	0	0	0	501	511	0	1018	38	1	
6	0	0	0	0	480	510	0	1018	38	1	
7	0	0	0	0	492	509	0	1018	39	1	
8	0	0	0	0	509	508	0	1018	38	1	
9	0	0	0	0	517	508	0	1018	38	1	
10	0	0	0	0	507	508	0	1018	38	1	
11	0	0	0	0	503	507	0	1018	38	1	
12	0	0	0	0	507	507	0	1018	38	1	
13	0	0	0	0	486	507	0	1018	38	1	
14	0	0	0	0	497	507	0	1018	38	1	
15	0	0	0	0	536	506	0	1018	39	1	
0	0	0	0	0	540	507	0	1018	38	1	
1	0	0	0	0	520	509	0	1018	38	1	
2	0	0	0	0	504	508	0	1018	38	1	
3	0	0	0	0	507	510	0	1018	38	1	
4	0	0	0	0	509	512	0	1018	38	1	
5	0	0	0	0	512	510	0	1018	38	1	
6	0	0	0	0	514	510	0	1017	38	1	
7	0	0	0	0	516	509	0	803	39	1	
8	0	0	0	0	518	507	0	369	38	1	
9	0	0	0	0	515	505	0	0	38	1	
10	0	0	0	0	502	504	0	0	38	1	
11	0	0	0	0	502	503	0	0	38	1	
12	0	0	0	0	506	501	0	0	38	1	
13	0	0	0	0	512	500	0	0	38	1	
14	0	0	0	0	521	503	0	0	38	1	
15	0	0	0	0	519	505	0	0	39	1	
0	0	0	0	0	511	504	0	0	38	1	
1	0	0	0	0	500	505	0	0	38	1	
2	0	0	0	0	496	505	0	0	38	1	
3	0	0	0	0	486	505	0	0	38	1	
4	0	0	0	0	493	506	0	0	38	1	
5	0	0	0	0	496	507	0	0	38	1	
6	0	0	0	0	503	507	0	0	38	1	
7	0	0	0	0	496	507	0	0	39	1	
8	0	0	0	0	494	508	0	0	38	1	
9	0	0	0	0	505	507	0	0	38	1	
10	0	0	0	0	513	508	0	0	38	1	
11	0	0	0	0	519	508	0	0	38	1	
12	0	0	0	0	522	506	0	0	38	1	
13	0	0	0	0	525	503	0	0	38	1	
14	0	0	0	0	519	503	0	0	38	1	
15	0	0	0	0	526	504	0	0	39	1	
0	0	0	0	0	522	502	0	0	38	1	
1	0	0	0	0	503	504	0	0	38	1	
2	0	0	0	0	492	506	0	0	38	1	
3	0	0	0	0	487	507	0	0	38	1	
4	0	0	0	0	502	507	0	0	38	1	
5	0	0	0	0	503	507	0	0	38	1	
6	0	0	0	0	502	505	0	0	38	1	
7	0	0	0	0	515	504	0	0	39	1	
8	0	0	0	0	515	505	0	0	38	1	
9	0	0	0	0	528	506	0	0	38	1	
10	0	0	0	0	537	507	0	0	38	1	
11	0	0	0	0	540	507	0	0	38	1	
12	0	0	0	0	528	505	0	0	38	1	
13	0	0	0	0	503	504	0	0	38	1	
14	0	0	0	0	490	506	0	0	38	1	
15	0	0	0	0	491	506	0	0	39	1	
0	0	0	0	0	482	507	0	0	38	1	
1	0	0	0	0	459	510	0	0	38	1	
2	0	0	0	0	487	511	0	0	38	1	
3	0	0	0	0	520	512	0	0	38	1	
4	0	0	0	0	514	513	0	0	38	1	
5	0	0	0	0	522	513	0	0	38	1	
6	0	0	0	0	532	511	0	0	38	1	
7	0	0	0	0	519	510	0	0	39	1	
8	0	0	0	0	520	510	0	0	38	1	
9	0	0	0	0	520	509	0	0	38	1	
10	0	0	0	0	520	508	0	0	38	1	
11	0	0	0	0	507	507	0	0	38	1	
12	0	0	0	0	497	506	0	0	38	1	
13	0	0	0	0	501	506	0	0	38	1	
14	0	0	0	0	507	508	0	0	38	1	
15	0	0	0	0	504	507	0	0	39	1	
0	0	0	0	0	508	508	0	0	38	1	
1	0	0	0	0	516	509	0	0	38	1	
2	0	0	0	0	523	510	0	0	38	1	
3	0	0	0	0	525	508	0	0	38	1	
4	0	0	0	0	517	508	0	0	38	1	
5	0	0	0	0	515	509	0	0	38	1	
6	0	0	0	0	502	511	0	0	38	1	
7	0	0	0	0	507	512	0	0	39	1	
8	0	0	0	0	502	509	0	0	38	1	
9	0	0	0	0	486	511	0	0	38	1	
10	0	0	0	0	492	511	0	0	38	1	
11	0	0	0	0	503	509	0	0	38	1	
12	0	0	0	0	512	507	0	0	38	1	
13	0	0	0	0	518	506	0	0	38	1	
14	0	0	0	0	519	506	0	0	38	1	
15	0	0	0	0	523	506	0	0	39	1	
0	0	0	0	0	510	507	0	0	38	1	
1	0	0	0	0	511	508	0	384	38	1	
2	0	0	0	0	536	510	0	642	38	1	
3	0	0	0	0	544	510	0	828	38	1	
4	0	0	0	0	529	512	0	860	38	1	
5	0	0	0	0	502	512	0	755	38	1	
6	0	0	0	0	475	511	0	499	38	1	
7	0	0	0	0	460	512	0	185	39	1	
8	0	0	0	0	453	512	0	0	38	1	
9	0	0	0	0	458	510	0	0	38	1	
10	0	0	0	0	492	511	0	0	38	1	
11	0	0	0	0	525	512	0	0	38	1	
12	0	0	0	0	531	511	0	0	38	1	
13	0	0	0	0	527	509	0	0	38	1	
14	0	0	0	0	523	508	0	0	38	1	
15	0	0	0	0	518	506	0	0	39	1	
0	0	0	0	0	518	506	0	587	38	1	
1	0	0	0	0	510	506	0	1018	38	1	
2	0	0	0	0	515	509	0	1018	38	1	
3	0	0	0	0	511	509	0	1018	38	1	
4	0	0	0	0	502	510	0	1018	38	1	
5	0	0	0	0	508	510	0	1018	38	1	
6	0	0	0	0	510	511	0	1018	38	1	
7	0	0	0	0	526	510	0	1018	39	1	
8	0	0	0	0	531	511	0	1018	38	1	
9	0	0	0	0	528	512	0	1018	38	1	
10	0	0	0	0	521	511	0	1018	38	1	
11	0	0	0	0	501	510	0	1018	38	1	
12	0	0	0	0	488	509	0	1018	38	1	
13	0	0	0	0	500	507	0	1018	38	1	
14	0	0	0	0	507	507	0	1018	38	1	
15	0	0	0	0	500	506	0	1018	39	1	
0	0	0	0	0	496	503	0	1018	38	1	
1	0	0	0	0	503	504	0	1018	38	1	
2	0	0	0	0	509	503	0	1018	38	1	
3	0	0	0	0	511	503	0	1018	38	1	
4	0	0	0	0	517	504	0	1018	38	1	
5	0	0	0	0	516	507	0	1018	38	1	
6	0	0	0	0	511	508	0	1018	38	1	
7	0	0	0	0	510	511	0	1018	39	1	
8	0	0	0	0	507	511	0	1018	38	1	
9	0	0	0	0	509	512	0	1018	38	1	
10	0	0	0	0	510	512	0	1018	38	1	
11	0	0	0	0	508	511	0	1018	38	1	
12	0	0	0	0	508	509	0	1018	38	1	
13	0	0	0	0	510	509	0	1018	38	1	
14	0	0	0	0	514	507	0	1017	38	1	
15	0	0	0	0	512	506	0	827	39	1	
0	0	0	0	0	518	506	0	819	38	1	
1	0	0	0	0	521	505	0	793	38	1	
2	0	0	0	0	512	505	0	777	38	1	
3	0	0	0	0	510	507	0	778	38	1	
4	0	0	0	0	520	508	0	774	38	1	
5	0	0	0	0	510	507	0	819	38	1	
6	0	0	0	0	498	509	0	860	38	1	
7	0	0	0	0	490	509	0	814	39	1	
8	0	0	0	0	483	510	0	773	38	1	
9	0	0	0	0	485	509	0	576	38	1	
10	0	0	0	0	505	511	0	307	38	1	
11	0	0	0	0	515	511	0	50	38	1	
12	0	0	0	0	509	511	0	0	38	1	
13	0	0	0	0	517	509	0	0	38	1	
14	0	0	0	0	519	508	0	0	38	1	
15	0	0	0	0	512	507	0	0	39	1	
0	0	0	0	0	511	506	0	0	38	1	
1	0	0	0	0	513	505	0	0	38	1	
2	0	0	0	0	513	504	0	233	38	1	
3	0	0	0	0	512	504	0	870	38	1	
4	0	0	0	0	522	504	0	1018	38	1	
5	0	0	0	0	522	505	0	1018	38	1	
6	0	0	0	0	520	508	0	1018	38	1	
7	0	0	0	0	526	509	0	1018	39	1	
8	0	0	0	0	517	508	0	1018	38	1	
9	0	0	0	0	509	509	0	1018	38	1	
10	0	0	0	0	496	509	0	1018	38	1	
11	0	0	0	0	481	509	0	1018	38	1	
12	0	0	0	0	470	509	0	1018	38	1	
13	0	0	0	0	477	509	0	1018	38	1	
14	0	0	0	0	487	509	0	1018	38	1	
15	0	0	0	0	503	507	0	1018	39	1	
0	0	0	0	0	505	507	0	1018	38	1	
1	0	0	0	0	509	508	0	1018	38	1	
2	0	0	0	0	497	507	0	1018	38	1	
3	0	0	0	0	531	507	0	1018	38	1	
4	0	0	0	0	556	508	0	1018	38	1	
5	0	0	0	0	535	508	0	1018	38	1	
6	0	0	0	0	514	508	0	1018	38	1	
7	0	0	0	0	507	508	0	1018	39	1	
8	0	0	0	0	509	508	0	1018	38	1	
9	0	0	0	0	517	508	0	1018	38	1	
10	0	0	0	0	521	510	0	1018	38	1	
11	0	0	0	0	521	509	0	1018	38	1	
12	0	0	0	0	524	510	0	1018	38	1	
13	0	0	0	0	518	509	0	1018	38	1	
14	0	0	0	0	511	508	0	1018	38	1	
15	0	0	0	0	506	507	0	1018	39	1	
0	0	0	0	0	500	506	0	1018	38	1	
1	0	0	0	0	490	506	0	1018	38	1	
2	0	0	0	0	499	505	0	1018	38	1	
3	0	0	0	0	509	504	0	1018	38	1	
4	0	0	0	0	515	505	0	1018	38	1	
5	0	0	0	0	487	508	0	1018	38	1	
6	0	0	0	0	479	508	0	1018	38	1	
7	0	0	0	0	503	508	0	1018	39	1	
8	0	0	0	0	519	509	0	1018	38	1	
9	0	0	0	0	512	507	0	1018	38	1	
10	0	0	0	0	503	507	0	1018	38	1	
11	0	0	0	0	503	506	0	1018	38	1	
12	0	0	0	0	485	505	0	1018	38	1	
13	0	0	0	0	488	505	0	1018	38	1	
14	0	0	0	0	507	506	0	1018	38	1	
15	0	0	0	0	521	507	0	1018	39	1	
0	0	0	0	0	520	507	0	1018	38	1	
1	0	0	0	0	520	508	0	1018	38	1	
2	0	0	0	0	513	510	0	1018	38	1	
3	0	0	0	0	512	509	0	1018	38	1	
4	0	0	0	0	520	509	0	1018	38	1	
5	0	0	0	0	528	509	0	1018	38	1	
6	0	0	0	0	528	508	0	1018	38	1	
7	0	0	0	0	524	508	0	253	39	1	
8	0	0	0	0	519	509	0	0	38	1	
9	0	0	0	0	515	510	0	0	38	1	
10	0	0	0	0	507	509	0	0	38	1	
11	0	0	0	0	512	509	0	0	38	1	
12	0	0	0	0	516	510	0	0	38	1	
13	0	0	0	0	516	508	0	0	38	1	
14	0	0	0	0	517	507	0	0	38	1	
15	0	0	0	0	506	508	0	0	39	1	
0	0	0	0	0	494	507	0	0	38	1	
1	0	0	0	0	490	507	0	0	38	1	
2	0	0	0	0	487	508	0	0	38	1	
3	0	0	0	0	497	507	0	0	38	1	
4	0	0	0	0	503	505	0	0	38	1	
5	0	0	0	0	509	504	0	0	38	1	
6	0	0	0	0	504	505	0	0	38	1	
7	0	0	0	0	508	506	0	0	39	1	
8	0	0	0	0	516	508	0	0	38	1	
9	0	0	0	0	510	508	0	0	38	1	
10	0	0	0	0	512	508	0	0	38	1	
11	0	0	0	0	513	508	0	0	38	1	
12	0	0	0	0	509	508	0	0	38	1	
13	0	0	0	0	519	508	0	0	38	1	
14	0	0	0	0	534	506	0	0	38	1	
15	0	0	0	0	527	505	0	0	39	1	
0	0	0	0	0	512	505	0	0	38	1	
1	0	0	0	0	510	505	0	0	38	1	
2	0	0	0	0	512	507	0	0	38	1	
3	0	0	0	0	512	507	0	0	38	1	
4	0	0	0	0	503	506	0	0	38	1	
5	0	0	0	0	496	507	0	0	38	1	
6	0	0	0	0	490	506	0	0	38	1	
7	0	0	0	0	480	505	0	0	39	1	
8	0	0	0	0	467	504	0	0	38	1	
9	0	0	0	0	479	507	0	0	38	1	
10	0	0	0	0	502	508	0	0	38	1	
11	0	0	0	0	502	511	0	0	38	1	
12	0	0	0	0	519	509	0	0	38	1	
13	0	0	0	0	539	508	0	0	38	1	
14	0	0	0	0	538	508	0	0	38	1	
15	0	0	0	0	538	507	0	0	39	1	
0	0	0	0	0	540	509	0	0	38	1	
1	0	0	0	0	542	508	0	0	38	1	
2	0	0	0	0	530	508	0	0	38	1	
3	0	0	0	0	527	507	0	0	38	1	
4	0	0	0	0	510	507	0	0	38	1	
5	0	0	0	0	477	507	0	0	38	1	
6	0	0	0	0	467	508	0	0	38	1	
7	0	0	0	0	477	508	0	0	39	1	
8	0	0	0	0	477	509	0	0	38	1	
9	0	0	0	0	468	512	0	0	38	1	
10	0	0	0	0	498	512	0	0	38	1	
11	0	0	0	0	541	512	0	0	38	1	
12	0	0	0	0	530	511	0	0	38	1	
13	0	0	0	0	496	510	0	0	38	1	
14	0	0	0	0	495	511	0	0	38	1	
15	0	0	0	0	505	510	0	0	39	1	
0	0	0	0	0	506	510	0	0	38	1	
1	0	0	0	0	506	510	0	0	38	1	
2	0	0	0	0	516	508	0	0	38	1	
3	0	0	0	0	523	508	0	0	38	1	
4	0	0	0	0	520	507	0	0	38	1	
5	0	0	0	0	520	507	0	0	38	1	
6	0	0	0	0	521	504	0	0	38	1	
7	0	0	0	0	519	504	0	0	39	1	
8	0	0	0	0	522	505	0	0	38	1	
9	0	0	0	0	515	506	0	0	38	1	
10	0	0	0	0	505	508	0	0	38	1	
11	0	0	0	0	504	508	0	0	38	1	
12	0	0	0	0	508	508	0	0	38	1	
13	0	0	0	0	505	509	0	0	38	1	
14	0	0	0	0	503	509	0	0	38	1	
15	0	0	0	0	521	509	0	0	39	1	
0	0	0	0	0	535	508	0	0	38	1	
1	0	0	0	0	515	509	0	0	38	1	
2	0	0	0	0	492	509	0	0	38	1	
3	0	0	0	0	487	509	0	0	38	1	
4	0	0	0	0	491	509	0	0	38	1	
5	0	0	0	0	498	508	0	0	38	1	
6	0	0	0	0	497	505	0	0	38	1	
7	0	0	0	0	510	505	0	0	39	1	
8	0	0	0	0	517	508	0	0	38	1	
9	0	0	0	0	520	508	0	0	38	1	
10	0	0	0	0	516	508	0	0	38	1	
11	0	0	0	0	507	508	0	0	38	1	
12	0	0	0	0	500	508	0	0	38	1	
13	0	0	0	0	484	508	0	0	38	1	
14	0	0	0	0	480	510	0	0	38	1	
15	0	0	0	0	493	508	0	0	39	1	
0	0	0	0	0	517	508	0	0	38	1	
1	0	0	0	0	531	507	0	0	38	1	
2	0	0	0	0	532	507	0	0	38	1	
3	0	0	0	0	528	507	0	0	38	1	
4	0	0	0	0	519	506	0	0	38	1	
5	0	0	0	0	518	505	0	0	38	1	
6	0	0	0	0	517	505	0	0	38	1	
7	0	0	0	0	511	505	0	0	39	1	
8	0	0	0	0	517	504	0	0	38	1	
9	0	0	0	0	513	505	0	750	38	1	
10	0	0	0	0	513	508	0	1018	38	1	
11	0	0	0	0	520	508	0	1018	38	1	
12	0	0	0	0	533	508	0	1018	38	1	
13	0	0	0	0	537	508	0	1018	38	1	
14	0	0	0	0	522	508	0	1018	38	1	
15	0	0	0	0	487	509	0	1018	39	1	
0	0	0	0	0	458	511	0	1018	38	1	
1	0	0	0	0	463	511	0	1018	38	1	
2	0	0	0	0	503	509	0	1018	38	1	
3	0	0	0	0	522	509	0	1017	38	1	
4	0	0	0	0	521	508	0	611	38	1	
5	0	0	0	0	515	507	0	284	38	1	
6	0	0	0	0	491	507	0	36	38	1	
7	0	0	0	0	475	508	0	0	39	1	
8	0	0	0	0	484	506	0	0	38	1	
9	0	0	0	0	508	506	0	0	38	1	
10	0	0	0	0	534	507	0	263	38	1	
11	0	0	0	0	520	508	0	451	38	1	
12	0	0	0	0	499	509	0	539	38	1	
13	0	0	0	0	496	511	0	742	38	1	
14	0	0	0	0	508	511	0	1018	38	1	
15	0	0	0	0	518	512	0	1018	39	1	
0	0	0	0	0	510	512	0	1018	38	1	
1	0	0	0	0	492	511	0	1018	38	1	
2	0	0	0	0	483	511	0	1018	38	1	
3	0	0	0	0	510	511	0	1018	38	1	
4	0	0	0	0	544	509	0	1018	38	1	
5	0	0	0	0	543	509	0	1018	38	1	
6	0	0	0	0	533	510	0	1018	38	1	
7	0	0	0	0	534	507	0	1018	39	1	
8	0	0	0	0	532	506	0	1018	38	1	
9	0	0	0	0	523	505	0	1018	38	1	
10	0	0	0	0	494	505	0	1018	38	1	
11	0	0	0	0	480	506	0	1018	38	1	
12	0	0	0	0	489	506	0	1018	38	1	
13	0	0	0	0	512	505	0	1018	38	1	
14	0	0	0	0	509	509	0	1018	38	1	
15	0	0	0	0	496	509	0	1018	39	1	
0	0	0	0	0	494	509	0	1018	38	1	
1	0	0	0	0	500	505	0	1018	38	1	
2	0	0	0	0	499	504	0	1018	38	1	
3	0	0	0	0	511	505	0	1018	38	1	
4	0	0	0	0	520	507	0	1018	38	1	
5	0	0	0	0	528	508	0	1018	38	1	
6	0	0	0	0	531	509	0	1018	38	1	
7	0	0	0	0	522	508	0	1018	39	1	
8	0	0	0	0	526	508	0	1018	38	1	
9	0	0	0	0	510	505	0	1018	38	1	
10	0	0	0	0	498	504	0	1018	38	1	
11	0	0	0	0	496	504	0	1018	38	1	
12	0	0	0	0	498	503	0	1018	38	1	
13	0	0	0	0	499	504	0	1018	38	1	
14	0	0	0	0	503	505	0	1018	38	1	
15	0	0	0	0	509	506	0	1018	39	1	
0	0	0	0	0	508	507	0	1018	38	1	
1	0	0	0	0	511	508	0	1018	38	1	
2	0	0	0	0	523	510	0	1018	38	1	
3	0	0	0	0	514	508	0	1018	38	1	
4	0	0	0	0	513	510	0	1018	38	1	
5	0	0	0	0	515	509	0	1018	38	1	
6	0	0	0	0	519	509	0	1018	38	1	
7	0	0	0	0	522	509	0	1018	39	1	
8	0	0	0	0	515	508	0	1018	38	1	
9	0	0	0	0	515	508	0	1018	38	1	
10	0	0	0	0	518	508	0	1018	38	1	
11	0	0	0	0	511	507	0	1018	38	1	
12	0	0	0	0	496	506	0	1018	38	1	
13	0	0	0	0	480	507	0	1018	38	1	
14	0	0	0	0	478	510	0	1018	38	1	
15	0	0	0	0	494	510	0	1018	39	1	
0	0	0	0	0	520	509	0	1018	38	1	
1	0	0	0	0	527	510	0	1018	38	1	
2	0	0	0	0	515	510	0	1018	38	1	
3	0	0	0	0	503	510	0	1018	38	1	
4	0	0	0	0	515	508	0	1018	38	1	
5	0	0	0	0	529	509	0	1018	38	1	
6	0	0	0	0	516	508	0	1018	38	1	
7	0	0	0	0	499	506	0	1018	39	1	
8	0	0	0	0	502	506	0	1018	38	1	
9	0	0	0	0	494	504	0	1018	38	1	
10	0	0	0	0	488	504	0	1018	38	1	
11	0	0	0	0	508	505	0	1018	38	1	
12	0	0	0	0	522	507	0	1018	38	1	
13	0	0	0	0	516	508	0	1018	38	1	
14	0	0	0	0	493	509	0	1018	38	1	
15	0	0	0	0	481	509	0	1018	39	1	
0	0	0	0	0	492	510	0	1018	38	1	
1	0	0	0	0	512	511	0	1018	38	1	
2	0	0	0	0	525	510	0	1018	38	1	
3	0	0	0	0	518	510	0	1018	38	1	
4	0	0	0	0	509	509	0	1018	38	1	
5	0	0	0	0	519	508	0	1018	38	1	
6	0	0	0	0	518	507	0	1018	38	1	
7	0	0	0	0	520	507	0	1018	39	1	
8	0	0	0	0	518	507	0	1018	38	1	
9	0	0	0	0	513	506	0	1018	38	1	
10	0	0	0	0	505	505	0	1018	38	1	
11	0	0	0	0	515	504	0	1018	38	1	
12	0	0	0	0	527	504	0	1018	38	1	
13	0	0	0	0	520	506	0	1018	38	1	
14	0	0	0	0	504	507	0	1018	38	1	
15	0	0	0	0	499	507	0	1018	39	1	
0	0	0	0	0	509	509	0	1018	38	1	
1	0	0	0	0	509	510	0	1018	38	1	
2	0	0	0	0	505	510	0	1018	38	1	
3	0	0	0	0	515	508	0	1018	38	1	
4	0	0	0	0	521	508	0	1018	38	1	
5	0	0	0	0	509	508	0	1018	38	1	
6	0	0	0	0	511	508	0	1018	38	1	
7	0	0	0	0	501	508	0	1018	39	1	
8	0	0	0	0	490	508	0	1017	38	1	
9	0	0	0	0	481	507	0	702	38	1	
10	0	0	0	0	479	505	0	201	38	1	
11	0	0	0	0	494	507	0	0	38	1	
12	0	0	0	0	516	507	0	0	38	1	
13	0	0	0	0	523	506	0	0	38	1	
14	0	0	0	0	511	505	0	0	38	1	
15	0	0	0	0	498	507	0	0	39	1	
0	0	0	0	0	515	508	0	0	38	1	
1	0	0	0	0	525	510	0	0	38	1	
2	0	0	0	0	527	511	0	0	38	1	
3	0	0	0	0	529	509	0	0	38	1	
4	0	0	0	0	518	510	0	0	38	1	
5	0	0	0	0	512	510	0	0	38	1	
6	0	0	0	0	517	507	0	0	38	1	
7	0	0	0	0	500	506	0	0	39	1	
8	0	0	0	0	500	506	0	0	38	1	
9	0	0	0	0	505	506	0	0	38	1	
10	0	0	0	0	513	505	0	0	38	1	
11	0	0	0	0	524	507	0	0	38	1	
12	0	0	0	0	519	508	0	0	38	1	
13	0	0	0	0	508	505	0	0	38	1	
14	0	0	0	0	509	508	0	0	38	1	
15	0	0	0	0	519	508	0	0	39	1	
0	0	0	0	0	516	508	0	0	38	1	
1	0	0	0	0	512	509	0	0	38	1	
2	0	0	0	0	512	509	0	0	38	1	
3	0	0	0	0	507	509	0	0	38	1	
4	0	0	0	0	500	507	0	0	38	1	
5	0	0	0	0	491	507	0	0	38	1	
6	0	0	0	0	484	507	0	0	38	1	
7	0	0	0	0	495	508	0	0	39	1	
8	0	0	0	0	497	509	0	0	38	1	
9	0	0	0	0	500	509	0	0	38	1	
10	0	0	0	0	495	509	0	0	38	1	
11	0	0	0	0	488	508	0	0	38	1	
12	0	0	0	0	488	505	0	0	38	1	
13	0	0	0	0	512	504	0	0	38	1	
14	0	0	0	0	524	504	0	0	38	1	
15	0	0	0	0	519	504	0	0	39	1	
0	0	0	0	0	523	507	0	0	38	1	
1	0	0	0	0	525	509	0	0	38	1	
2	0	0	0	0	522	508	0	0	38	1	
3	0	0	0	0	513	511	0	0	38	1	
4	0	0	0	0	508	510	0	0	38	1	
5	0	0	0	0	507	510	0	0	38	1	
6	0	0	0	0	513	511	0	0	38	1	
7	0	0	0	0	521	511	0	0	39	1	
8	0	0	0	0	525	512	0	0	38	1	
9	0	0	0	0	515	511	0	0	38	1	
10	0	0	0	0	509	511	0	0	38	1	
11	0	0	0	0	515	509	0	0	38	1	
12	0	0	0	0	516	508	0	0	38	1	
13	0	0	0	0	520	507	0	0	38	1	
14	0	0	0	0	508	505	0	0	38	1	
15	0	0	0	0	491	506	0	0	39	1	
0	0	0	0	0	496	508	0	0	38	1	
1	0	0	0	0	497	509	0	0	38	1	
2	0	0	0	0	495	511	0	0	38	1	
3	0	0	0	0	504	511	0	0	38	1	
4	0	0	0	0	512	511	0	0	38	1	
5	0	0	0	0	512	511	0	0	38	1	
6	0	0	0	0	505	512	0	0	38	1	
7	0	0	0	0	503	512	0	0	39	1	
8	0	0	0	0	501	509	0	0	38	1	
9	0	0	0	0	515	509	0	0	38	1	
10	0	0	0	0	511	508	0	0	38	1	
11	0	0	0	0	503	505	0	0	38	1	
12	0	0	0	0	518	505	0	0	38	1	
13	0	0	0	0	527	503	0	0	38	1	
14	0	0	0	0	510	504	0	0	38	1	
15	0	0	0	0	494	504	0	0	39	1	
0	0	0	0	0	491	506	0	0	38	1	
1	0	0	0	0	495	507	0	533	38	1	
2	0	0	0	0	497	508	0	973	38	1	
3	0	0	0	0	521	510	0	1018	38	1	
4	0	0	0	0	527	508	0	1018	38	1	
5	0	0	0	0	513	508	0	1018	38	1	
6	0	0	0	0	511	509	0	1018	38	1	
7	0	0	0	0	510	510	0	1018	39	1	
8	0	0	0	0	515	510	0	1018	38	1	
9	0	0	0	0	515	510	0	1018	38	1	
10	0	0	0	0	508	511	0	1018	38	1	
11	0	0	0	0	506	510	0	1018	38	1	
12	0	0	0	0	515	508	0	1018	38	1	
13	0	0	0	0	516	508	0	1018	38	1	
14	0	0	0	0	507	506	0	1018	38	1	
15	0	0	0	0	510	507	0	1018	39	1	
0	0	0	0	0	515	505	0	1018	38	1	
1	0	0	0	0	500	504	0	1018	38	1	
2	0	0	0	0	522	506	0	1018	38	1	
3	0	0	0	0	553	509	0	1018	38	1	
4	0	0	0	0	543	511	0	1018	38	1	
5	0	0	0	0	511	511	0	1018	38	1	
6	0	0	0	0	496	510	0	1018	38	1	
7	0	0	0	0	467	508	0	1018	39	1	
8	0	0	0	0	463	507	0	1018	38	1	
9	0	0	0	0	498	507	0	1018	38	1	
10	0	0	0	0	524	507	0	1018	38	1	
11	0	0	0	0	508	508	0	1018	38	1	
12	0	0	0	0	506	508	0	1018	38	1	
13	0	0	0	0	510	508	0	1018	38	1	
14	0	0	0	0	500	507	0	1018	38	1	
15	0	0	0	0	490	508	0	1018	39	1	
0	0	0	0	0	508	507	0	1018	38	1	
1	0	0	0	0	518	507	0	1018	38	1	
2	0	0	0	0	514	507	0	1018	38	1	
3	0	0	0	0	505	508	0	1018	38	1	
4	0	0	0	0	499	511	0	1018	38	1	
5	0	0	0	0	497	508	0	1018	38	1	
6	0	0	0	0	510	510	0	1018	38	1	
7	0	0	0	0	519	510	0	1018	39	1	
8	0	0	0	0	519	510	0	1018	38	1	
9	0	0	0	0	520	512	0	1018	38	1	
10	0	0	0	0	519	511	0	1018	38	1	
11	0	0	0	0	527	511	0	1018	38	1	
12	0	0	0	0	531	512	0	1017	38	1	
13	0	0	0	0	525	511	0	716	38	1	
14	0	0	0	0	522	510	0	532	38	1	
15	0	0	0	0	517	509	0	555	39	1	
0	0	0	0	0	493	508	0	676	38	1	
1	0	0	0	0	476	508	0	782	38	1	
2	0	0	0	0	483	508	0	1017	38	1	
3	0	0	0	0	487	508	0	1018	38	1	
4	0	0	0	0	497	508	0	1018	38	1	
5	0	0	0	0	508	508	0	1018	38	1	
6	0	0	0	0	512	510	0	1018	38	1	
7	0	0	0	0	511	510	0	1018	39	1	
8	0	0	0	0	508	510	0	1018	38	1	
9	0	0	0	0	501	509	0	1018	38	1	
10	0	0	0	0	510	508	0	1018	38	1	
11	0	0	0	0	520	509	0	1018	38	1	
12	0	0	0	0	520	508	0	1018	38	1	
13	0	0	0	0	526	509	0	1017	38	1	
14	0	0	0	0	540	508	0	1017	38	1	
15	0	0	0	0	532	504	0	792	39	1	
0	0	0	0	0	522	504	0	467	38	1	
1	0	0	0	0	500	502	0	303	38	1	
2	0	0	0	0	493	504	0	136	38	1	
3	0	0	0	0	507	503	0	37	38	1	
4	0	0	0	0	504	502	0	0	38	1	
5	0	0	0	0	504	502	0	0	38	1	
6	0	0	0	0	500	503	0	0	38	1	
7	0	0	0	0	488	505	0	0	39	1	
8	0	0	0	0	504	505	0	0	38	1	
9	0	0	0	0	507	505	0	0	38	1	
10	0	0	0	0	508	505	0	0	38	1	
11	0	0	0	0	515	506	0	0	38	1	
12	0	0	0	0	503	507	0	0	38	1	
13	0	0	0	0	498	506	0	0	38	1	
14	0	0	0	0	504	505	0	0	38	1	
15	0	0	0	0	529	505	0	0	39	1	
0	0	0	0	0	542	504	0	0	38	1	
1	0	0	0	0	540	504	0	0	38	1	
2	0	0	0	0	521	504	0	0	38	1	
3	0	0	0	0	511	504	0	0	38	1	
4	0	0	0	0	500	505	0	0	38	1	
5	0	0	0	0	476	505	0	0	38	1	
6	0	0	0	0	466	506	0	0	38	1	
7	0	0	0	0	482	507	0	0	39	1	
8	0	0	0	0	521	507	0	0	38	1	
9	0	0	0	0	534	509	0	0	38	1	
10	0	0	0	0	536	510	0	0	38	1	
11	0	0	0	0	534	510	0	0	38	1	
12	0	0	0	0	531	510	0	0	38	1	
13	0	0	0	0	519	509	0	0	38	1	
14	0	0	0	0	515	509	0	0	38	1	
15	0	0	0	0	494	510	0	0	39	1	
0	0	0	0	0	473	508	0	0	38	1	
1	0	0	0	0	468	508	0	0	38	1	
2	0	0	0	0	471	508	0	0	38	1	
3	0	0	0	0	481	507	0	0	38	1	
4	0	0	0	0	505	506	0	0	38	1	
5	0	0	0	0	519	507	0	548	38	1	
6	0	0	0	0	524	506	0	1018	38	1	
7	0	0	0	0	519	506	0	1018	39	1	
8	0	0	0	0	507	508	0	1018	38	1	
9	0	0	0	0	490	508	0	1018	38	1	
10	0	0	0	0	480	511	0	1018	38	1	
11	0	0	0	0	501	513	0	1018	38	1	
12	0	0	0	0	536	513	0	1018	38	1	
13	0	0	0	0	541	512	0	1018	38	1	
14	0	0	0	0	531	511	0	1018	38	1	
15	0	0	0	0	526	510	0	1018	39	1	
0	0	0	0	0	509	509	0	1018	38	1	
1	0	0	0	0	508	508	0	1018	38	1	
2	0	0	0	0	509	506	0	1018	38	1	
3	0	0	0	0	504	504	0	1018	38	1	
4	0	0	0	0	509	505	0	1018	38	1	
5	0	0	0	0	505	504	0	1018	38	1	
6	0	0	0	0	514	506	0	1018	38	1	
7	0	0	0	0	519	507	0	1018	39	1	
8	0	0	0	0	512	508	0	1018	38	1	
9	0	0	0	0	511	509	0	1018	38	1	
10	0	0	0	0	512	509	0	1018	38	1	
11	0	0	0	0	514	507	0	1017	38	1	
12	0	0	0	0	519	508	0	336	38	1	
13	0	0	0	0	512	510	0	0	38	1	
14	0	0	0	0	508	509	0	0	38	1	
15	0	0	0	0	502	508	0	0	39	1	
0	0	0	0	0	512	508	0	0	38	1	
1	0	0	0	0	519	507	0	0	38	1	
2	0	0	0	0	524	505	0	0	38	1	
3	0	0	0	0	519	504	0	0	38	1	
4	0	0	0	0	514	504	0	0	38	1	
5	0	0	0	0	509	504	0	0	38	1	
6	0	0	0	0	496	507	0	0	38	1	
7	0	0	0	0	488	508	0	0	39	1	
8	0	0	0	0	499	508	0	0	38	1	
9	0	0	0	0	497	509	0	0	38	1	
10	0	0	0	0	504	510	0	0	38	1	
11	0	0	0	0	505	510	0	0	38	1	
12	0	0	0	0	512	511	0	0	38	1	
13	0	0	0	0	521	510	0	0	38	1	
14	0	0	0	0	523	509	0	0	38	1	
15	0	0	0	0	507	508	0	0	39	1	
0	0	0	0	0	514	508	0	0	38	1	
1	0	0	0	0	518	507	0	0	38	1	
2	0	0	0	0	520	507	0	0	38	1	
3	0	0	0	0	512	505	0	0	38	1	
4	0	0	0	0	508	504	0	0	38	1	
5	0	0	0	0	489	504	0	0	38	1	
6	0	0	0	0	478	506	0	0	38	1	
7	0	0	0	0	490	507	0	0	39	1	
8	0	0	0	0	502	507	0	407	38	1	
9	0	0	0	0	503	507	0	1018	38	1	
10	0	0	0	0	513	510	0	1018	38	1	
11	0	0	0	0	519	511	0	1018	38	1	
12	0	0	0	0	534	512	0	1018	38	1	
13	0	0	0	0	534	511	0	1018	38	1	
14	0	0	0	0	519	510	0	1018	38	1	
15	0	0	0	0	501	509	0	1018	39	1	
0	0	0	0	0	486	510	0	1018	38	1	
1	0	0	0	0	488	508	0	1018	38	1	
2	0	0	0	0	498	507	0	1018	38	1	
3	0	0	0	0	505	505	0	1018	38	1	
4	0	0	0	0	504	505	0	1018	38	1	
5	0	0	0	0	509	505	0	1018	38	1	
6	0	0	0	0	512	506	0	1018	38	1	
7	0	0	0	0	519	507	0	1018	39	1	
8	0	0	0	0	534	508	0	1018	38	1	
9	0	0	0	0	520	510	0	1017	38	1	
10	0	0	0	0	500	509	0	1018	38	1	
11	0	0	0	0	490	509	0	1018	38	1	
12	0	0	0	0	493	510	0	1018	38	1	
13	0	0	0	0	514	510	0	1018	38	1	
14	0	0	0	0	524	509	0	1018	38	1	
15	0	0	0	0	519	509	0	1018	39	1	
0	0	0	0	0	522	509	0	1018	38	1	
1	0	0	0	0	525	509	0	1018	38	1	
2	0	0	0	0	517	507	0	1018	38	1	
3	0	0	0	0	514	505	0	1018	38	1	
4	0	0	0	0	496	508	0	1018	38	1	
5	0	0	0	0	483	506	0	1018	38	1	
6	0	0	0	0	486	504	0	1018	38	1	
7	0	0	0	0	510	504	0	1018	39	1	
8	0	0	0	0	508	505	0	1018	38	1	
9	0	0	0	0	512	506	0	1018	38	1	
10	0	0	0	0	514	506	0	1018	38	1	
11	0	0	0	0	517	507	0	1018	38	1	
12	0	0	0	0	512	509	0	1018	38	1	
13	0	0	0	0	509	508	0	1018	38	1	
14	0	0	0	0	512	508	0	1018	38	1	
15	0	0	0	0	518	508	0	1018	39	1	
0	0	0	0	0	522	505	0	1018	38	1	
1	0	0	0	0	514	508	0	1018	38	1	
2	0	0	0	0	502	507	0	1018	38	1	
3	0	0	0	0	501	508	0	1018	38	1	
4	0	0	0	0	510	508	0	1018	38	1	
5	0	0	0	0	525	507	0	1018	38	1	
6	0	0	0	0	536	505	0	1018	38	1	
7	0	0	0	0	531	504	0	1018	39	1	
8	0	0	0	0	519	503	0	1018	38	1	
9	0	0	0	0	507	503	0	1018	38	1	
10	0	0	0	0	484	504	0	1018	38	1	
11	0	0	0	0	486	506	0	1018	38	1	
12	0	0	0	0	493	509	0	1018	38	1	
13	0	0	0	0	486	510	0	1018	38	1	
14	0	0	0	0	483	509	0	1018	38	1	
15	0	0	0	0	499	510	0	1018	39	1	
0	0	0	0	0	513	509	0	1018	38	1	
1	0	0	0	0	508	510	0	1018	38	1	
2	0	0	0	0	505	510	0	1018	38	1	
3	0	0	0	0	509	509	0	1018	38	1	
4	0	0	0	0	515	507	0	1018	38	1	
5	0	0	0	0	522	507	0	1018	38	1	
6	0	0	0	0	535	505	0	1018	38	1	
7	0	0	0	0	538	505	0	1018	39	1	
8	0	0	0	0	537	504	0	1018	38	1	
9	0	0	0	0	523	503	0	1018	38	1	
10	0	0	0	0	500	505	0	1018	38	1	
11	0	0	0	0	497	507	0	1018	38	1	
12	0	0	0	0	500	509	0	1018	38	1	
13	0	0	0	0	499	509	0	1018	38	1	
14	0	0	0	0	492	510	0	1018	38	1	
15	0	0	0	0	487	510	0	1017	39	1	
0	0	0	0	0	493	509	0	736	38	1	
1	0	0	0	0	511	508	0	194	38	1	
2	0	0	0	0	513	509	0	0	38	1	
3	0	0	0	0	513	507	0	0	38	1	
4	0	0	0	0	508	507	0	0	38	1	
5	0	0	0	0	499	505	0	0	38	1	
6	0	0	0	0	503	505	0	0	38	1	
7	0	0	0	0	514	504	0	0	39	1	
8	0	0	0	0	517	505	0	0	38	1	
9	0	0	0	0	519	504	0	0	38	1	
10	0	0	0	0	512	504	0	0	38	1	
11	0	0	0	0	506	506	0	0	38	1	
12	0	0	0	0	507	507	0	0	38	1	
13	0	0	0	0	500	510	0	0	38	1	
14	0	0	0	0	494	513	0	0	38	1	
15	0	0	0	0	504	514	0	0	39	1	
0	0	0	0	0	521	514	0	0	38	1	
1	0	0	0	0	523	513	0	0	38	1	
2	0	0	0	0	516	509	0	0	38	1	
3	0	0	0	0	519	508	0	0	38	1	
4	0	0	0	0	503	508	0	0	38	1	
5	0	0	0	0	518	510	0	0	38	1	
6	0	0	0	0	521	508	0	0	38	1	
7	0	0	0	0	511	508	0	0	39	1	
8	0	0	0	0	509	505	0	0	38	1	
9	0	0	0	0	511	504	0	0	38	1	
10	0	0	0	0	494	504	0	0	38	1	
11	0	0	0	0	505	504	0	0	38	1	
12	0	0	0	0	516	503	0	0	38	1	
13	0	0	0	0	510	504	0	0	38	1	
14	0	0	0	0	507	505	0	0	38	1	
15	0	0	0	0	502	507	0	0	39	1	
0	0	0	0	0	505	507	0	0	38	1	
1	0	0	0	0	510	506	0	0	38	1	
2	0	0	0	0	516	506	0	0	38	1	
3	0	0	0	0	511	507	0	0	38	1	
4	0	0	0	0	498	506	0	0	38	1	
5	0	0	0	0	494	507	0	0	38	1	
6	0	0	0	0	512	508	0	0	38	1	
7	0	0	0	0	531	510	0	0	39	1	
8	0	0	0	0	535	509	0	0	38	1	
9	0	0	0	0	515	509	0	0	38	1	
10	0	0	0	0	495	508	0	0	38	1	
11	0	0	0	0	488	507	0	0	38	1	
12	0	0	0	0	493	508	0	0	38	1	
13	0	0	0	0	516	509	0	0	38	1	
14	0	0	0	0	524	511	0	0	38	1	
15	0	0	0	0	523	511	0	0	39	1	
0	0	0	0	0	526	510	0	0	38	1	
1	0	0	0	0	529	511	0	0	38	1	
2	0	0	0	0	513	510	0	0	38	1	
3	0	0	0	0	475	509	0	0	38	1	
4	0	0	0	0	471	509	0	0	38	1	
5	0	0	0	0	496	509	0	0	38	1	
6	0	0	0	0	510	509	0	0	38	1	
7	0	0	0	0	502	509	0	0	39	1	
8	0	0	0	0	488	508	0	0	38	1	
9	0	0	0	0	489	506	0	0	38	1	
10	0	0	0	0	496	507	0	0	38	1	
11	0	0	0	0	508	506	0	0	38	1	
12	0	0	0	0	518	507	0	0	38	1	
13	0	0	0	0	514	509	0	0	38	1	
14	0	0	0	0	511	510	0	0	38	1	
15	0	0	0	0	512	510	0	0	39	1	
0	0	0	0	0	518	510	0	0	38	1	
1	0	0	0	0	526	510	0	0	38	1	
2	0	0	0	0	523	510	0	0	38	1	
3	0	0	0	0	520	511	0	0	38	1	
4	0	0	0	0	517	510	0	0	38	1	
5	0	0	0	0	514	508	0	0	38	1	
6	0	0	0	0	522	505	0	0	38	1	
7	0	0	0	0	521	506	0	0	39	1	
8	0	0	0	0	510	506	0	0	38	1	
9	0	0	0	0	508	506	0	0	38	1	
10	0	0	0	0	516	507	0	0	38	1	
11	0	0	0	0	512	506	0	322	38	1	
12	0	0	0	0	500	507	0	967	38	1	
13	0	0	0	0	494	508	0	1018	38	1	
14	0	0	0	0	498	508	0	1018	38	1	
15	0	0	0	0	522	507	0	1018	39	1	
0	0	0	0	0	519	508	0	1018	38	1	
1	0	0	0	0	496	509	0	1018	38	1	
2	0	0	0	0	490	509	0	1018	38	1	
3	0	0	0	0	487	509	0	1018	38	1	
4	0	0	0	0	492	509	0	1018	38	1	
5	0	0	0	0	499	509	0	1018	38	1	
6	0	0	0	0	509	509	0	1018	38	1	
7	0	0	0	0	519	509	0	1018	39	1	
8	0	0	0	0	520	509	0	1018	38	1	
9	0	0	0	0	518	509	0	1018	38	1	
10	0	0	0	0	515	505	0	1018	38	1	
11	0	0	0	0	496	503	0	1018	38	1	
12	0	0	0	0	487	503	0	1018	38	1	
13	0	0	0	0	504	504	0	1018	38	1	
14	0	0	0	0	529	505	0	1018	38	1	
15	0	0	0	0	529	505	0	1018	39	1	
0	0	0	0	0	513	508	0	1018	38	1	
1	0	0	0	0	507	510	0	1018	38	1	
2	0	0	0	0	508	510	0	1018	38	1	
3	0	0	0	0	509	509	0	1018	38	1	
4	0	0	0	0	513	508	0	1018	38	1	
5	0	0	0	0	517	509	0	1018	38	1	
6	0	0	0	0	519	510	0	1018	38	1	
7	0	0	0	0	518	508	0	1018	39	1	
8	0	0	0	0	527	509	0	1018	38	1	
9	0	0	0	0	534	508	0	1017	38	1	
10	0	0	0	0	523	507	0	1018	38	1	
11	0	0	0	0	506	507	0	1018	38	1	
12	0	0	0	0	499	506	0	1018	38	1	
13	0	0	0	0	489	505	0	1018	38	1	
14	0	0	0	0	487	507	0	1018	38	1	
15	0	0	0	0	483	510	0	1018	39	1	
0	0	0	0	0	499	510	0	1018	38	1	
1	0	0	0	0	513	510	0	1018	38	1	
2	0	0	0	0	507	510	0	1018	38	1	
3	0	0	0	0	497	511	0	1018	38	1	
4	0	0	0	0	492	510	0	1018	38	1	
5	0	0	0	0	492	508	0	729	38	1	
6	0	0	0	0	506	508	0	0	38	1	
7	0	0	0	0	529	509	0	0	39	1	
8	0	0	0	0	546	509	0	0	38	1	
9	0	0	0	0	570	508	0	0	38	1	
10	0	0	0	0	560	507	0	0	38	1	
11	0	0	0	0	526	505	0	0	38	1	
12	0	0	0	0	467	504	0	0	38	1	
13	0	0	0	0	423	506	0	0	38	1	
14	0	0	0	0	455	507	0	0	38	1	
15	0	0	0	0	504	508	0	0	39	1	
0	0	0	0	0	518	507	0	0	38	1	
1	0	0	0	0	526	510	0	0	38	1	
2	0	0	0	0	529	511	0	0	38	1	
3	0	0	0	0	516	511	0	0	38	1	
4	0	0	0	0	489	512	0	0	38	1	
5	0	0	0	0	504	510	0	0	38	1	
6	0	0	0	0	515	508	0	0	38	1	
7	0	0	0	0	518	507	0	0	39	1	
8	0	0	0	0	504	508	0	0	38	1	
9	0	0	0	0	520	507	0	0	38	1	
10	0	0	0	0	527	507	0	0	38	1	
11	0	0	0	0	515	507	0	0	38	1	
12	0	0	0	0	510	507	0	0	38	1	
13	0	0	0	0	499	507	0	0	38	1	
14	0	0	0	0	496	508	0	0	38	1	
15	0	0	0	0	500	510	0	0	39	1	
0	0	0	0	0	515	510	0	198	38	1	
1	0	0	0	0	529	509	0	370	38	1	
2	0	0	0	0	514	508	0	411	38	1	
3	0	0	0	0	505	508	0	390	38	1	
4	0	0	0	0	509	509	0	249	38	1	
5	0	0	0	0	516	510	0	17	38	1	
6	0	0	0	0	507	510	0	0	38	1	
7	0	0	0	0	512	510	0	0	39	1	
8	0	0	0	0	518	509	0	0	38	1	
9	0	0	0	0	505	508	0	0	38	1	
10	0	0	0	0	484	508	0	0	38	1	
11	0	0	0	0	482	507	0	0	38	1	
12	0	0	0	0	498	507	0	0	38	1	
13	0	0	0	0	511	507	0	0	38	1	
14	0	0	0	0	517	506	0	0	38	1	
15	0	0	0	0	515	506	0	254	39	1	
0	0	0	0	0	509	505	0	684	38	1	
1	0	0	0	0	507	508	0	932	38	1	
2	0	0	0	0	510	509	0	1017	38	1	
3	0	0	0	0	520	508	0	1018	38	1	
4	0	0	0	0	522	510	0	1018	38	1	
5	0	0	0	0	523	511	0	1018	38	1	
6	0	0	0	0	516	510	0	1018	38	1	
7	0	0	0	0	508	509	0	1017	39	1	
8	0	0	0	0	500	508	0	722	38	1	
9	0	0	0	0	500	505	0	522	38	1	
10	0	0	0	0	495	506	0	271	38	1	
11	0	0	0	0	501	504	0	43	38	1	
12	0	0	0	0	505	504	0	0	38	1	
13	0	0	0	0	514	504	0	0	38	1	
14	0	0	0	0	517	504	0	0	38	1	
15	0	0	0	0	515	505	0	0	39	1	
0	0	0	0	0	516	507	0	0	38	1	
1	0	0	0	0	534	507	0	214	38	1	
2	0	0	0	0	540	508	0	443	38	1	
3	0	0	0	0	532	510	0	690	38	1	
4	0	0	0	0	511	510	0	980	38	1	
5	0	0	0	0	478	511	0	1018	38	1	
6	0	0	0	0	461	512	0	1018	38	1	
7	0	0	0	0	468	510	0	1018	39	1	
8	0	0	0	0	485	509	0	1018	38	1	
9	0	0	0	0	493	508	0	1017	38	1	
10	0	0	0	0	495	510	0	1018	38	1	
11	0	0	0	0	496	509	0	1018	38	1	
12	0	0	0	0	518	508	0	1018	38	1	
13	0	0	0	0	527	507	0	1018	38	1	
14	0	0	0	0	515	506	0	1018	38	1	
15	0	0	0	0	527	507	0	1018	39	1	
0	0	0	0	0	546	506	0	1018	38	1	
1	0	0	0	0	526	505	0	1018	38	1	
2	0	0	0	0	515	507	0	1018	38	1	
3	0	0	0	0	515	507	0	1018	38	1	
4	0	0	0	0	519	509	0	1018	38	1	
5	0	0	0	0	530	510	0	1018	38	1	
6	0	0	0	0	539	510	0	1018	38	1	
7	0	0	0	0	538	510	0	1018	39	1	
8	0	0	0	0	527	510	0	1018	38	1	
9	0	0	0	0	502	509	0	1018	38	1	
10	0	0	0	0	483	509	0	1018	38	1	
11	0	0	0	0	479	508	0	1018	38	1	
12	0	0	0	0	457	506	0	1017	38	1	
13	0	0	0	0	465	506	0	1018	38	1	
14	0	0	0	0	481	506	0	926	38	1	
15	0	0	0	0	496	506	0	865	39	1	
0	0	0	0	0	497	504	0	711	38	1	
1	0	0	0	0	503	503	0	504	38	1	
2	0	0	0	0	509	503	0	333	38	1	
3	0	0	0	0	513	504	0	132	38	1	
4	0	0	0	0	522	505	0	0	38	1	
5	0	0	0	0	537	508	0	0	38	1	
6	0	0	0	0	543	509	0	0	38	1	
7	0	0	0	0	540	508	0	0	39	1	
8	0	0	0	0	532	508	0	0	38	1	
9	0	0	0	0	519	507	0	0	38	1	
10	0	0	0	0	506	506	0	0	38	1	
11	0	0	0	0	512	508	0	0	38	1	
12	0	0	0	0	507	509	0	0	38	1	
13	0	0	0	0	494	509	0	0	38	1	
14	0	0	0	0	489	508	0	0	38	1	
15	0	0	0	0	494	508	0	0	39	1	
0	0	0	0	0	518	506	0	0	38	1	
1	0	0	0	0	527	505	0	0	38	1	
2	0	0	0	0	507	507	0	0	38	1	
3	0	0	0	0	493	508	0	320	38	1	
4	0	0	0	0	507	508	0	750	38	1	
5	0	0	0	0	505	509	0	1018	38	1	
6	0	0	0	0	494	510	0	1018	38	1	
7	0	0	0	0	489	510	0	1018	39	1	
8	0	0	0	0	496	510	0	1018	38	1	
9	0	0	0	0	508	509	0	1018	38	1	
10	0	0	0	0	514	509	0	1018	38	1	
11	0	0	0	0	520	507	0	1018	38	1	
12	0	0	0	0	511	505	0	699	38	1	
13	0	0	0	0	520	505	0	340	38	1	
14	0	0	0	0	515	504	0	12	38	1	
15	0	0	0	0	502	504	0	0	39	1	
0	0	0	0	0	512	504	0	0	38	1	
1	0	0	0	0	517	504	0	0	38	1	
2	0	0	0	0	525	504	0	0	38	1	
3	0	0	0	0	519	503	0	0	38	1	
4	0	0	0	0	510	505	0	347	38	1	
5	0	0	0	0	510	506	0	577	38	1	
6	0	0	0	0	513	508	0	667	38	1	
7	0	0	0	0	513	509	0	615	39	1	
8	0	0	0	0	503	509	0	515	38	1	
9	0	0	0	0	496	509	0	268	38	1	
10	0	0	0	0	499	511	0	0	38	1	
11	0	0	0	0	507	511	0	0	38	1	
12	0	0	0	0	523	508	0	0	38	1	
13	0	0	0	0	518	508	0	0	38	1	
14	0	0	0	0	515	507	0	0	38	1	
15	0	0	0	0	511	508	0	0	39	1	
0	0	0	0	0	504	506	0	0	38	1	
1	0	0	0	0	505	505	0	0	38	1	
2	0	0	0	0	507	504	0	0	38	1	
3	0	0	0	0	499	503	0	0	38	1	
4	0	0	0	0	498	504	0	0	38	1	
5	0	0	0	0	504	508	0	0	38	1	
6	0	0	0	0	508	508	0	432	38	1	
7	0	0	0	0	518	508	0	638	39	1	
8	0	0	0	0	523	511	0	729	38	1	
9	0	0	0	0	519	510	0	695	38	1	
10	0	0	0	0	509	511	0	377	38	1	
11	0	0	0	0	502	509	0	0	38	1	
12	0	0	0	0	500	508	0	0	38	1	
13	0	0	0	0	498	508	0	0	38	1	
14	0	0	0	0	499	508	0	0	38	1	
15	0	0	0	0	506	509	0	0	39	1	
0	0	0	0	0	514	507	0	0	38	1	
1	0	0	0	0	523	505	0	0	38	1	
2	0	0	0	0	513	504	0	0	38	1	
3	0	0	0	0	511	502	0	0	38	1	
4	0	0	0	0	509	505	0	0	38	1	
5	0	0	0	0	498	507	0	0	38	1	
6	0	0	0	0	488	507	0	0	38	1	
7	0	0	0	0	494	507	0	0	39	1	
8	0	0	0	0	507	509	0	0	38	1	
9	0	0	0	0	497	509	0	0	38	1	
10	0	0	0	0	481	510	0	0	38	1	
11	0	0	0	0	503	510	0	0	38	1	
12	0	0	0	0	519	509	0	0	38	1	
13	0	0	0	0	523	509	0	0	38	1	
14	0	0	0	0	504	509	0	0	38	1	
15	0	0	0	0	515	510	0	0	39	1	
0	0	0	0	0	529	507	0	0	38	1	
1	0	0	0	0	523	507	0	0	38	1	
2	0	0	0	0	509	507	0	0	38	1	
3	0	0	0	0	502	507	0	0	38	1	
4	0	0	0	0	509	507	0	0	38	1	
5	0	0	0	0	531	507	0	0	38	1	
6	0	0	0	0	521	507	0	0	38	1	
7	0	0	0	0	511	508	0	0	39	1	
8	0	0	0	0	535	509	0	0	38	1	
9	0	0	0	0	545	510	0	0	38	1	
10	0	0	0	0	516	510	0	0	38	1	
11	0	0	0	0	495	510	0	0	38	1	
12	0	0	0	0	494	509	0	0	38	1	
13	0	0	0	0	509	508	0	0	38	1	
14	0	0	0	0	515	506	0	0	38	1	
15	0	0	0	0	505	504	0	0	39	1	
0	0	0	0	0	492	504	0	0	38	1	
1	0	0	0	0	493	503	0	0	38	1	
2	0	0	0	0	512	503	0	0	38	1	
3	0	0	0	0	515	503	0	0	38	1	
4	0	0	0	0	525	503	0	0	38	1	
5	0	0	0	0	515	503	0	0	38	1	
6	0	0	0	0	512	504	0	0	38	1	
7	0	0	0	0	503	506	0	0	39	1	
8	0	0	0	0	492	506	0	0	38	1	
9	0	0	0	0	500	504	0	0	38	1	
10	0	0	0	0	503	504	0	0	38	1	
11	0	0	0	0	497	504	0	0	38	1	
12	0	0	0	0	496	506	0	0	38	1	
13	0	0	0	0	501	507	0	0	38	1	
14	0	0	0	0	501	506	0	0	38	1	
15	0	0	0	0	512	507	0	0	39	1	
0	0	0	0	0	521	507	0	0	38	1	
1	0	0	0	0	522	508	0	0	38	1	
2	0	0	0	0	522	509	0	0	38	1	
3	0	0	0	0	519	506	0	0	38	1	
4	0	0	0	0	498	507	0	0	38	1	
5	0	0	0	0	500	506	0	0	38	1	
6	0	0	0	0	504	508	0	0	38	1	
7	0	0	0	0	518	507	0	624	39	1	
8	0	0	0	0	514	507	0	1018	38	1	
9	0	0	0	0	529	509	0	1018	38	1	
10	0	0	0	0	539	510	0	1018	38	1	
11	0	0	0	0	527	510	0	1018	38	1	
12	0	0	0	0	488	510	0	1018	38	1	
13	0	0	0	0	472	508	0	1018	38	1	
14	0	0	0	0	473	508	0	1018	38	1	
15	0	0	0	0	486	507	0	1018	39	1	
0	0	0	0	0	504	507	0	1018	38	1	
1	0	0	0	0	511	508	0	1018	38	1	
2	0	0	0	0	508	506	0	1018	38	1	
3	0	0	0	0	504	506	0	1018	38	1	
4	0	0	0	0	514	504	0	1018	38	1	
5	0	0	0	0	514	504	0	1018	38	1	
6	0	0	0	0	511	504	0	1018	38	1	
7	0	0	0	0	503	503	0	1018	39	1	
8	0	0	0	0	498	505	0	1018	38	1	
9	0	0	0	0	510	508	0	1017	38	1	
10	0	0	0	0	496	509	0	1018	38	1	
11	0	0	0	0	509	509	0	1018	38	1	
12	0	0	0	0	524	508	0	1018	38	1	
13	0	0	0	0	531	508	0	1018	38	1	
14	0	0	0	0	535	510	0	1018	38	1	
15	0	0	0	0	539	510	0	1018	39	1	
0	0	0	0	0	534	509	0	1018	38	1	
1	0	0	0	0	514	508	0	1018	38	1	
2	0	0	0	0	496	508	0	1018	38	1	
3	0	0	0	0	503	507	0	1018	38	1	
4	0	0	0	0	500	509	0	1018	38	1	
5	0	0	0	0	497	508	0	1018	38	1	
6	0	0	0	0	508	508	0	1018	38	1	
7	0	0	0	0	506	508	0	1018	39	1	
8	0	0	0	0	499	508	0	1018	38	1	
9	0	0	0	0	502	508	0	1018	38	1	
10	0	0	0	0	508	507	0	1018	38	1	
11	0	0	0	0	509	508	0	1018	38	1	
12	0	0	0	0	513	508	0	1018	38	1	
13	0	0	0	0	523	509	0	1018	38	1	
14	0	0	0	0	517	510	0	1018	38	1	
15	0	0	0	0	512	511	0	1018	39	1	
0	0	0	0	0	512	510	0	1018	38	1	
1	0	0	0	0	508	509	0	1018	38	1	
2	0	0	0	0	507	507	0	1018	38	1	
3	0	0	0	0	501	507	0	1018	38	1	
4	0	0	0	0	495	508	0	1018	38	1	
5	0	0	0	0	506	507	0	1018	38	1	
6	0	0	0	0	509	505	0	1018	38	1	
7	0	0	0	0	497	505	0	1018	39	1	
8	0	0	0	0	509	506	0	1018	38	1	
9	0	0	0	0	533	507	0	1018	38	1	
10	0	0	0	0	519	508	0	1018	38	1	
11	0	0	0	0	513	510	0	1018	38	1	
12	0	0	0	0	504	510	0	1018	38	1	
13	0	0	0	0	509	512	0	1018	38	1	
14	0	0	0	0	509	512	0	1018	38	1	
15	0	0	0	0	524	510	0	1018	39	1	
0	0	0	0	0	532	508	0	1018	38	1	
1	0	0	0	0	506	509	0	1018	38	1	
2	0	0	0	0	489	509	0	1018	38	1	
3	0	0	0	0	504	508	0	1018	38	1	
4	0	0	0	0	517	508	0	1018	38	1	
5	0	0	0	0	520	507	0	1018	38	1	
6	0	0	0	0	517	505	0	1018	38	1	
7	0	0	0	0	486	505	0	1017	39	1	
8	0	0	0	0	470	503	0	857	38	1	
9	0	0	0	0	488	503	0	930	38	1	
10	0	0	0	0	515	504	0	1018	38	1	
11	0	0	0	0	509	505	0	1017	38	1	
12	0	0	0	0	499	506	0	1018	38	1	
13	0	0	0	0	519	508	0	1017	38	1	
14	0	0	0	0	524	509	0	642	38	1	
15	0	0	0	0	519	510	0	207	39	1	
0	0	0	0	0	512	510	0	0	38	1	
1	0	0	0	0	503	511	0	0	38	1	
2	0	0	0	0	501	512	0	0	38	1	
3	0	0	0	0	519	511	0	0	38	1	
4	0	0	0	0	524	510	0	0	38	1	
5	0	0	0	0	508	509	0	0	38	1	
6	0	0	0	0	494	508	0	0	38	1	
7	0	0	0	0	500	505	0	0	39	1	
8	0	0	0	0	511	504	0	0	38	1	
9	0	0	0	0	516	505	0	0	38	1	
10	0	0	0	0	515	506	0	0	38	1	
11	0	0	0	0	511	506	0	0	38	1	
12	0	0	0	0	495	507	0	0	38	1	
13	0	0	0	0	495	507	0	0	38	1	
14	0	0	0	0	515	508	0	0	38	1	
15	0	0	0	0	532	509	0	0	39	1	
0	0	0	0	0	514	510	0	0	38	1	
1	0	0	0	0	510	509	0	0	38	1	
2	0	0	0	0	508	510	0	0	38	1	
3	0	0	0	0	510	511	0	0	38	1	
4	0	0	0	0	509	509	0	0	38	1	
5	0	0	0	0	511	508	0	0	38	1	
6	0	0	0	0	503	507	0	0	38	1	
7	0	0	0	0	491	505	0	0	39	1	
8	0	0	0	0	492	505	0	0	38	1	
9	0	0	0	0	498	505	0	0	38	1	
10	0	0	0	0	507	507	0	0	38	1	
11	0	0	0	0	520	509	0	0	38	1	
12	0	0	0	0	528	509	0	0	38	1	
13	0	0	0	0	521	509	0	0	38	1	
14	0	0	0	0	514	509	0	0	38	1	
15	0	0	0	0	507	509	0	0	39	1	
0	0	0	0	0	510	508	0	0	38	1	
1	0	0	0	0	514	509	0	0	38	1	
2	0	0	0	0	504	509	0	0	38	1	
3	0	0	0	0	504	508	0	0	38	1	
4	0	0	0	0	510	507	0	0	38	1	
5	0	0	0	0	516	508	0	0	38	1	
6	0	0	0	0	511	508	0	0	38	1	
7	0	0	0	0	510	506	0	0	39	1	
8	0	0	0	0	511	506	0	0	38	1	
9	0	0	0	0	509	505	0	0	38	1	
10	0	0	0	0	506	505	0	0	38	1	
11	0	0	0	0	502	504	0	0	38	1	
12	0	0	0	0	508	504	0	0	38	1	
13	0	0	0	0	513	506	0	0	38	1	
14	0	0	0	0	507	506	0	0	38	1	
15	0	0	0	0	505	509	0	0	39	1	
0	0	0	0	0	513	509	0	0	38	1	
1	0	0	0	0	502	510	0	0	38	1	
2	0	0	0	0	480	510	0	0	38	1	
3	0	0	0	0	464	509	0	0	38	1	
4	0	0	0	0	509	511	0	0	38	1	
5	0	0	0	0	525	511	0	0	38	1	
6	0	0	0	0	541	512	0	0	38	1	
7	0	0	0	0	545	511	0	0	39	1	
8	0	0	0	0	531	511	0	0	38	1	
9	0	0	0	0	519	510	0	0	38	1	
10	0	0	0	0	510	509	0	0	38	1	
11	0	0	0	0	502	508	0	0	38	1	
12	0	0	0	0	508	508	0	0	38	1	
13	0	0	0	0	509	507	0	0	38	1	
14	0	0	0	0	513	507	0	0	38	1	
15	0	0	0	0	510	508	0	0	39	1	
0	0	0	0	0	505	510	0	0	38	1	
1	0	0	0	0	481	509	0	0	38	1	
2	0	0	0	0	470	511	0	0	38	1	
3	0	0	0	0	456	511	0	0	38	1	
4	0	0	0	0	473	510	0	0	38	1	
5	0	0	0	0	493	511	0	0	38	1	
6	0	0	0	0	515	510	0	0	38	1	
7	0	0	0	0	534	508	0	0	39	1	
8	0	0	0	0	537	507	0	0	38	1	
9	0	0	0	0	535	506	0	0	38	1	
10	0	0	0	0	525	504	0	0	38	1	
11	0	0	0	0	514	502	0	0	38	1	
12	0	0	0	0	506	503	0	0	38	1	
13	0	0	0	0	505	503	0	0	38	1	
14	0	0	0	0	522	505	0	0	38	1	
15	0	0	0	0	519	508	0	0	39	1	
0	0	0	0	0	517	508	0	0	38	1	
1	0	0	0	0	528	509	0	0	38	1	
2	0	0	0	0	525	508	0	0	38	1	
3	0	0	0	0	515	509	0	0	38	1	
4	0	0	0	0	507	507	0	0	38	1	
5	0	0	0	0	505	507	0	0	38	1	
6	0	0	0	0	517	506	0	0	38	1	
7	0	0	0	0	514	504	0	0	39	1	
8	0	0	0	0	506	504	0	0	38	1	
9	0	0	0	0	478	503	0	0	38	1	
10	0	0	0	0	492	504	0	0	38	1	
11	0	0	0	0	521	504	0	0	38	1	
12	0	0	0	0	524	503	0	0	38	1	
13	0	0	0	0	506	504	0	547	38	1	
14	0	0	0	0	497	507	0	1018	38	1	
15	0	0	0	0	508	508	0	1018	39	1	
0	0	0	0	0	488	508	0	1018	38	1	
1	0	0	0	0	504	508	0	1018	38	1	
2	0	0	0	0	521	510	0	1018	38	1	
3	0	0	0	0	519	511	0	1018	38	1	
4	0	0	0	0	516	511	0	1018	38	1	
5	0	0	0	0	511	510	0	1018	38	1	
6	0	0	0	0	504	511	0	1018	38	1	
7	0	0	0	0	503	510	0	1018	39	1	
8	0	0	0	0	514	508	0	1018	38	1	
9	0	0	0	0	521	508	0	1017	38	1	
10	0	0	0	0	519	506	0	1018	38	1	
11	0	0	0	0	512	505	0	1018	38	1	
12	0	0	0	0	519	504	0	1018	38	1	
13	0	0	0	0	518	505	0	1018	38	1	
14	0	0	0	0	496	506	0	1018	38	1	
15	0	0	0	0	494	506	0	1018	39	1	
0	0	0	0	0	498	508	0	1018	38	1	
1	0	0	0	0	513	508	0	1018	38	1	
2	0	0	0	0	490	508	0	1018	38	1	
3	0	0	0	0	482	508	0	1018	38	1	
4	0	0	0	0	504	507	0	1018	38	1	
5	0	0	0	0	523	508	0	1018	38	1	
6	0	0	0	0	528	505	0	1018	38	1	
7	0	0	0	0	527	504	0	1018	39	1	
8	0	0	0	0	520	504	0	1018	38	1	
9	0	0	0	0	495	505	0	1018	38	1	
10	0	0	0	0	476	504	0	1018	38	1	
11	0	0	0	0	501	504	0	1018	38	1	
12	0	0	0	0	512	504	0	1018	38	1	
13	0	0	0	0	499	504	0	1018	38	1	
14	0	0	0	0	499	504	0	1018	38	1	
15	0	0	0	0	507	505	0	1018	39	1	
0	0	0	0	0	509	507	0	1018	38	1	
1	0	0	0	0	522	508	0	1018	38	1	
2	0	0	0	0	530	507	0	1018	38	1	
3	0	0	0	0	517	507	0	1018	38	1	
4	0	0	0	0	507	507	0	640	38	1	
5	0	0	0	0	504	508	0	16	38	1	
6	0	0	0	0	480	508	0	0	38	1	
7	0	0	0	0	468	510	0	0	39	1	
8	0	0	0	0	462	509	0	0	38	1	
9	0	0	0	0	509	508	0	0	38	1	
10	0	0	0	0	536	507	0	0	38	1	
11	0	0	0	0	543	507	0	0	38	1	
12	0	0	0	0	565	507	0	0	38	1	
13	0	0	0	0	570	506	0	0	38	1	
14	0	0	0	0	524	506	0	0	38	1	
15	0	0	0	0	478	507	0	0	39	1	
0	0	0	0	0	472	507	0	0	38	1	
1	0	0	0	0	511	509	0	0	38	1	
2	0	0	0	0	543	510	0	0	38	1	
3	0	0	0	0	547	511	0	0	38	1	
4	0	0	0	0	534	509	0	0	38	1	
5	0	0	0	0	516	508	0	0	38	1	
6	0	0	0	0	497	508	0	0	38	1	
7	0	0	0	0	489	508	0	0	39	1	
8	0	0	0	0	506	508	0	0	38	1	
9	0	0	0	0	516	508	0	0	38	1	
10	0	0	0	0	523	509	0	0	38	1	
11	0	0	0	0	528	508	0	0	38	1	
12	0	0	0	0	518	508	0	0	38	1	
13	0	0	0	0	499	508	0	0	38	1	
14	0	0	0	0	451	508	0	0	38	1	
15	0	0	0	0	449	507	0	0	39	1	
0	0	0	0	0	491	510	0	0	38	1	
1	0	0	0	0	515	509	0	0	38	1	
2	0	0	0	0	521	510	0	0	38	1	
3	0	0	0	0	510	510	0	0	38	1	
4	0	0	0	0	510	511	0	0	38	1	
5	0	0	0	0	494	511	0	0	38	1	
6	0	0	0	0	487	511	0	0	38	1	
7	0	0	0	0	483	510	0	0	39	1	
8	0	0	0	0	499	510	0	0	38	1	
9	0	0	0	0	510	509	0	0	38	1	
10	0	0	0	0	522	508	0	0	38	1	
11	0	0	0	0	535	507	0	0	38	1	
12	0	0	0	0	536	506	0	0	38	1	
13	0	0	0	0	528	506	0	0	38	1	
14	0	0	0	0	514	506	0	0	38	1	
15	0	0	0	0	514	508	0	0	39	1	
0	0	0	0	0	519	507	0	0	38	1	
1	0	0	0	0	510	507	0	0	38	1	
2	0	0	0	0	509	506	0	0	38	1	
3	0	0	0	0	515	508	0	0	38	1	
4	0	0	0	0	510	508	0	77	38	1	
5	0	0	0	0	505	511	0	75	38	1	
6	0	0	0	0	505	509	0	22	38	1	
7	0	0	0	0	510	510	0	14	39	1	
8	0	0	0	0	509	510	0	39	38	1	
9	0	0	0	0	507	508	0	87	38	1	
10	0	0	0	0	501	508	0	11	38	1	
11	0	0	0	0	497	508	0	0	38	1	
12	0	0	0	0	494	507	0	0	38	1	
13	0	0	0	0	490	506	0	138	38	1	
14	0	0	0	0	499	507	0	345	38	1	
15	0	0	0	0	508	507	0	855	39	1	
0	0	0	0	0	513	508	0	1018	38	1	
1	0	0	0	0	531	508	0	1018	38	1	
2	0	0	0	0	541	508	0	1018	38	1	
3	0	0	0	0	517	509	0	1018	38	1	
4	0	0	0	0	484	508	0	1018	38	1	
5	0	0	0	0	495	507	0	1018	38	1	
6	0	0	0	0	516	507	0	1018	38	1	
7	0	0	0	0	517	506	0	1018	39	1	
8	0	0	0	0	511	506	0	1018	38	1	
9	0	0	0	0	504	507	0	1018	38	1	
10	0	0	0	0	508	508	0	1018	38	1	
11	0	0	0	0	506	510	0	1018	38	1	
12	0	0	0	0	499	510	0	1018	38	1	
13	0	0	0	0	508	509	0	1018	38	1	
14	0	0	0	0	516	508	0	1018	38	1	
15	0	0	0	0	517	507	0	1018	39	1	
0	0	0	0	0	515	506	0	1018	38	1	
1	0	0	0	0	512	506	0	1018	38	1	
2	0	0	0	0	512	505	0	1018	38	1	
3	0	0	0	0	501	507	0	1018	38	1	
4	0	0	0	0	481	510	0	1018	38	1	
5	0	0	0	0	504	511	0	1018	38	1	
6	0	0	0	0	517	511	0	1018	38	1	
7	0	0	0	0	522	511	0	1018	39	1	
8	0	0	0	0	535	511	0	1018	38	1	
9	0	0	0	0	536	510	0	1018	38	1	
10	0	0	0	0	537	511	0	1018	38	1	
11	0	0	0	0	536	510	0	1018	38	1	
12	0	0	0	0	524	508	0	1018	38	1	
13	0	0	0	0	519	508	0	1018	38	1	
14	0	0	0	0	522	507	0	1018	38	1	
15	0	0	0	0	483	504	0	1018	39	1	
0	0	0	0	0	434	505	0	1018	38	1	
1	0	0	0	0	454	506	0	1018	38	1	
2	0	0	0	0	497	508	0	1018	38	1	
3	0	0	0	0	495	509	0	1018	38	1	
4	0	0	0	0	493	507	0	1018	38	1	
5	0	0	0	0	511	508	0	1018	38	1	
6	0	0	0	0	529	508	0	1018	38	1	
7	0	0	0	0	513	508	0	1018	39	1	
8	0	0	0	0	493	508	0	1018	38	1	
9	0	0	0	0	492	511	0	1018	38	1	
10	0	0	0	0	503	511	0	1018	38	1	
11	0	0	0	0	504	511	0	1018	38	1	
12	0	0	0	0	515	510	0	1018	38	1	
13	0	0	0	0	534	510	0	1018	38	1	
14	0	0	0	0	537	510	0	1018	38	1	
15	0	0	0	0	536	508	0	1018	39	1	
0	0	0	0	0	531	508	0	1018	38	1	
1	0	0	0	0	519	507	0	1018	38	1	
2	0	0	0	0	512	506	0	1018	38	1	
3	0	0	0	0	518	506	0	1018	38	1	
4	0	0	0	0	506	507	0	1018	38	1	
5	0	0	0	0	504	510	0	1018	38	1	
6	0	0	0	0	500	512	0	1018	38	1	
7	0	0	0	0	492	512	0	1018	39	1	
8	0	0	0	0	496	513	0	1018	38	1	
9	0	0	0	0	511	514	0	1018	38	1	
10	0	0	0	0	515	514	0	1018	38	1	
11	0	0	0	0	520	513	0	1018	38	1	
12	0	0	0	0	528	513	0	1018	38	1	
13	0	0	0	0	535	513	0	1018	38	1	
14	0	0	0	0	527	510	0	742	38	1	
15	0	0	0	0	525	510	0	201	39	1	
0	0	0	0	0	519	510	0	0	38	1	
1	0	0	0	0	503	509	0	0	38	1	
2	0	0	0	0	487	509	0	0	38	1	
3	0	0	0	0	482	508	0	0	38	1	
4	0	0	0	0	469	508	0	0	38	1	
5	0	0	0	0	492	509	0	0	38	1	
6	0	0	0	0	520	512	0	0	38	1	
7	0	0	0	0	529	511	0	0	39	1	
8	0	0	0	0	512	513	0	0	38	1	
9	0	0	0	0	500	512	0	0	38	1	
10	0	0	0	0	506	512	0	0	38	1	
11	0	0	0	0	514	512	0	0	38	1	
12	0	0	0	0	497	512	0	0	38	1	
13	0	0	0	0	486	510	0	0	38	1	
14	0	0	0	0	504	509	0	0	38	1	
15	0	0	0	0	518	508	0	0	39	1	
0	0	0	0	0	519	508	0	0	38	1	
1	0	0	0	0	517	506	0	0	38	1	
2	0	0	0	0	531	507	0	0	38	1	
3	0	0	0	0	527	506	0	0	38	1	
4	0	0	0	0	498	508	0	0	38	1	
5	0	0	0	0	490	508	0	0	38	1	
6	0	0	0	0	504	509	0	0	38	1	
7	0	0	0	0	509	508	0	0	39	1	
8	0	0	0	0	503	509	0	332	38	1	
9	0	0	0	0	511	510	0	659	38	1	
10	0	0	0	0	491	511	0	880	38	1	
11	0	0	0	0	489	509	0	1009	38	1	
12	0	0	0	0	497	510	0	1017	38	1	
13	0	0	0	0	502	509	0	1017	38	1	
14	0	0	0	0	500	509	0	1017	38	1	
15	0	0	0	0	511	511	0	1017	39	1	
0	0	0	0	0	513	508	0	1018	38	1	
1	0	0	0	0	526	508	0	1017	38	1	
2	0	0	0	0	541	506	0	1018	38	1	
3	0	0	0	0	536	506	0	1018	38	1	
4	0	0	0	0	519	506	0	1018	38	1	
5	0	0	0	0	514	507	0	1018	38	1	
6	0	0	0	0	508	508	0	1018	38	1	
7	0	0	0	0	501	508	0	1018	39	1	
8	0	0	0	0	479	508	0	1018	38	1	
9	0	0	0	0	500	509	0	1018	38	1	
10	0	0	0	0	519	508	0	1018	38	1	
11	0	0	0	0	532	508	0	1018	38	1	
12	0	0	0	0	527	508	0	1018	38	1	
13	0	0	0	0	516	509	0	1018	38	1	
14	0	0	0	0	494	509	0	1018	38	1	
15	0	0	0	0	483	508	0	1018	39	1	
0	0	0	0	0	491	506	0	1018	38	1	
1	0	0	0	0	492	507	0	1018	38	1	
2	0	0	0	0	490	506	0	1018	38	1	
3	0	0	0	0	504	507	0	1018	38	1	
4	0	0	0	0	514	505	0	1018	38	1	
5	0	0	0	0	519	505	0	1018	38	1	
6	0	0	0	0	533	506	0	1018	38	1	
7	0	0	0	0	535	510	0	1018	39	1	
8	0	0	0	0	527	510	0	1018	38	1	
9	0	0	0	0	508	509	0	1018	38	1	
10	0	0	0	0	508	511	0	1018	38	1	
11	0	0	0	0	523	511	0	1018	38	1	
12	0	0	0	0	508	510	0	1018	38	1	
13	0	0	0	0	528	510	0	1018	38	1	
14	0	0	0	0	528	510	0	1018	38	1	
15	0	0	0	0	498	513	0	1018	39	1	
0	0	0	0	0	492	513	0	1018	38	1	
1	0	0	0	0	488	511	0	1018	38	1	
2	0	0	0	0	505	509	0	1018	38	1	
3	0	0	0	0	500	508	0	1018	38	1	
4	0	0	0	0	500	507	0	1018	38	1	
5	0	0	0	0	509	508	0	1018	38	1	
6	0	0	0	0	518	508	0	1018	38	1	
7	0	0	0	0	522	508	0	1018	39	1	
8	0	0	0	0	509	509	0	1018	38	1	
9	0	0	0	0	515	508	0	1018	38	1	
10	0	0	0	0	518	509	0	1018	38	1	
11	0	0	0	0	524	509	0	1018	38	1	
12	0	0	0	0	521	509	0	1018	38	1	
13	0	0	0	0	503	510	0	1018	38	1	
14	0	0	0	0	501	510	0	1018	38	1	
15	0	0	0	0	507	509	0	1018	39	1	
0	0	0	0	0	523	509	0	1018	38	1	
1	0	0	0	0	524	508	0	1018	38	1	
2	0	0	0	0	516	507	0	1017	38	1	
3	0	0	0	0	514	505	0	613	38	1	
4	0	0	0	0	507	505	0	201	38	1	
5	0	0	0	0	489	503	0	0	38	1	
6	0	0	0	0	482	502	0	0	38	1	
7	0	0	0	0	483	504	0	158	39	1	
8	0	0	0	0	485	506	0	548	38	1	
9	0	0	0	0	507	505	0	1017	38	1	
10	0	0	0	0	507	507	0	1018	38	1	
11	0	0	0	0	492	508	0	1018	38	1	
12	0	0	0	0	487	508	0	1018	38	1	
13	0	0	0	0	505	508	0	1018	38	1	
14	0	0	0	0	511	507	0	1018	38	1	
15	0	0	0	0	518	507	0	1017	39	1	
0	0	0	0	0	515	505	0	1017	38	1	
1	0	0	0	0	517	504	0	1018	38	1	
2	0	0	0	0	523	504	0	1018	38	1	
3	0	0	0	0	524	504	0	1018	38	1	
4	0	0	0	0	519	505	0	1018	38	1	
5	0	0	0	0	515	504	0	1017	38	1	
6	0	0	0	0	519	505	0	1018	38	1	
7	0	0	0	0	518	505	0	1018	39	1	
8	0	0	0	0	509	507	0	1018	38	1	
9	0	0	0	0	509	508	0	1018	38	1	
10	0	0	0	0	513	508	0	1018	38	1	
11	0	0	0	0	521	510	0	1018	38	1	
12	0	0	0	0	519	509	0	1018	38	1	
13	0	0	0	0	518	508	0	1018	38	1	
14	0	0	0	0	516	509	0	1018	38	1	
15	0	0	0	0	512	509	0	1018	39	1	
0	0	0	0	0	498	511	0	1018	38	1	
1	0	0	0	0	483	509	0	1018	38	1	
2	0	0	0	0	484	510	0	1018	38	1	
3	0	0	0	0	496	511	0	767	38	1	
4	0	0	0	0	510	509	0	476	38	1	
5	0	0	0	0	528	506	0	302	38	1	
6	0	0	0	0	524	505	0	295	38	1	
7	0	0	0	0	495	504	0	394	39	1	
8	0	0	0	0	495	504	0	623	38	1	
9	0	0	0	0	500	507	0	978	38	1	
10	0	0	0	0	504	509	0	1018	38	1	
11	0	0	0	0	496	511	0	1018	38	1	
12	0	0	0	0	489	513	0	1018	38	1	
13	0	0	0	0	495	513	0	1018	38	1	
14	0	0	0	0	512	511	0	1018	38	1	
15	0	0	0	0	517	511	0	1018	39	1	
0	0	0	0	0	524	513	0	1018	38	1	
1	0	0	0	0	526	510	0	1018	38	1	
2	0	0	0	0	524	510	0	1018	38	1	
3	0	0	0	0	514	510	0	1017	38	1	
4	0	0	0	0	516	508	0	1017	38	1	
5	0	0	0	0	512	507	0	1018	38	1	
6	0	0	0	0	512	505	0	1018	38	1	
7	0	0	0	0	515	504	0	1018	39	1	
8	0	0	0	0	527	503	0	1018	38	1	
9	0	0	0	0	519	504	0	1018	38	1	
10	0	0	0	0	511	504	0	1018	38	1	
11	0	0	0	0	501	506	0	1018	38	1	
12	0	0	0	0	495	507	0	1018	38	1	
13	0	0	0	0	503	508	0	1018	38	1	
14	0	0	0	0	523	507	0	1018	38	1	
15	0	0	0	0	543	507	0	1018	39	1	
0	0	0	0	0	508	507	0	366	38	1	
1	0	0	0	0	472	507	0	0	38	1	
2	0	0	0	0	476	508	0	0	38	1	
3	0	0	0	0	495	506	0	0	38	1	
4	0	0	0	0	501	507	0	0	38	1	
5	0	0	0	0	516	508	0	0	38	1	
6	0	0	0	0	524	507	0	0	38	1	
7	0	0	0	0	525	506	0	0	39	1	
8	0	0	0	0	511	507	0	0	38	1	
9	0	0	0	0	507	505	0	0	38	1	
10	0	0	0	0	491	507	0	0	38	1	
11	0	0	0	0	478	508	0	0	38	1	
12	0	0	0	0	493	508	0	0	38	1	
13	0	0	0	0	497	509	0	341	38	1	
14	0	0	0	0	525	508	0	351	38	1	
15	0	0	0	0	528	507	0	110	39	1	
0	0	0	0	0	515	507	0	0	38	1	
1	0	0	0	0	519	508	0	0	38	1	
2	0	0	0	0	524	506	0	0	38	1	
3	0	0	0	0	526	508	0	0	38	1	
4	0	0	0	0	520	507	0	0	38	1	
5	0	0	0	0	512	507	0	0	38	1	
6	0	0	0	0	515	505	0	0	38	1	
7	0	0	0	0	516	504	0	0	39	1	
8	0	0	0	0	507	504	0	0	38	1	
9	0	0	0	0	503	503	0	0	38	1	
10	0	0	0	0	493	503	0	0	38	1	
11	0	0	0	0	495	505	0	0	38	1	
12	0	0	0	0	516	505	0	0	38	1	
13	0	0	0	0	507	506	0	0	38	1	
14	0	0	0	0	504	508	0	0	38	1	
15	0	0	0	0	502	511	0	0	39	1	
0	0	0	0	0	500	510	0	0	38	1	
1	0	0	0	0	497	509	0	0	38	1	
2	0	0	0	0	497	511	0	0	38	1	
3	0	0	0	0	504	510	0	0	38	1	
4	0	0	0	0	503	510	0	0	38	1	
5	0	0	0	0	510	508	0	0	38	1	
6	0	0	0	0	496	508	0	0	38	1	
7	0	0	0	0	496	507	0	0	39	1	
8	0	0	0	0	519	507	0	0	38	1	
9	0	0	0	0	535	505	0	0	38	1	
10	0	0	0	0	529	505	0	0	38	1	
11	0	0	0	0	521	504	0	0	38	1	
12	0	0	0	0	515	507	0	0	38	1	
13	0	0	0	0	513	506	0	0	38	1	
14	0	0	0	0	509	507	0	0	38	1	
15	0	0	0	0	510	507	0	0	39	1	
0	0	0	0	0	506	505	0	0	38	1	
1	0	0	0	0	505	507	0	0	38	1	
2	0	0	0	0	509	508	0	0	38	1	
3	0	0	0	0	516	507	0	0	38	1	
4	0	0	0	0	521	507	0	0	38	1	
5	0	0	0	0	514	505	0	0	38	1	
6	0	0	0	0	499	505	0	0	38	1	
7	0	0	0	0	492	504	0	0	39	1	
8	0	0	0	0	516	503	0	0	38	1	
9	0	0	0	0	513	504	0	0	38	1	
10	0	0	0	0	514	504	0	0	38	1	
11	0	0	0	0	514	504	0	0	38	1	
12	0	0	0	0	500	504	0	0	38	1	
13	0	0	0	0	508	506	0	0	38	1	
14	0	0	0	0	535	507	0	0	38	1	
15	0	0	0	0	517	509	0	0	39	1	
0	0	0	0	0	489	510	0	0	38	1	
1	0	0	0	0	476	509	0	0	38	1	
2	0	0	0	0	482	509	0	0	38	1	
3	0	0	0	0	494	507	0	0	38	1	
4	0	0	0	0	510	505	0	0	38	1	
5	0	0	0	0	516	506	0	0	38	1	
6	0	0	0	0	523	507	0	0	38	1	
7	0	0	0	0	513	507	0	0	39	1	
8	0	0	0	0	508	506	0	0	38	1	
9	0	0	0	0	503	506	0	0	38	1	
10	0	0	0	0	512	507	0	0	38	1	
11	0	0	0	0	519	507	0	0	38	1	
12	0	0	0	0	511	507	0	0	38	1	
13	0	0	0	0	508	508	0	352	38	1	
14	0	0	0	0	518	507	0	679	38	1	
15	0	0	0	0	519	508	0	892	39	1	
0	0	0	0	0	519	508	0	1004	38	1	
1	0	0	0	0	526	510	0	1018	38	1	
2	0	0	0	0	507	510	0	1018	38	1	
3	0	0	0	0	502	509	0	1018	38	1	
4	0	0	0	0	505	509	0	1018	38	1	
5	0	0	0	0	510	507	0	1018	38	1	
6	0	0	0	0	515	506	0	1018	38	1	
7	0	0	0	0	504	506	0	1018	39	1	
8	0	0	0	0	518	504	0	1018	38	1	
9	0	0	0	0	546	503	0	1018	38	1	
10	0	0	0	0	543	504	0	1018	38	1	
11	0	0	0	0	534	506	0	1018	38	1	
12	0	0	0	0	509	506	0	1018	38	1	
13	0	0	0	0	492	505	0	1018	38	1	
14	0	0	0	0	462	507	0	1018	38	1	
15	0	0	0	0	459	509	0	1018	39	1	
0	0	0	0	0	466	509	0	1018	38	1	
1	0	0	0	0	477	508	0	1018	38	1	
2	0	0	0	0	508	508	0	1018	38	1	
3	0	0	0	0	524	508	0	1018	38	1	
4	0	0	0	0	519	508	0	1018	38	1	
5	0	0	0	0	512	509	0	1018	38	1	
6	0	0	0	0	524	507	0	1018	38	1	
7	0	0	0	0	527	506	0	1018	39	1	
8	0	0	0	0	518	508	0	1018	38	1	
9	0	0	0	0	518	508	0	1017	38	1	
10	0	0	0	0	511	508	0	1018	38	1	
11	0	0	0	0	502	507	0	1018	38	1	
12	0	0	0	0	494	507	0	1018	38	1	
13	0	0	0	0	481	508	0	1018	38	1	
14	0	0	0	0	500	508	0	1018	38	1	
15	0	0	0	0	515	510	0	1018	39	1	
0	0	0	0	0	518	510	0	1018	38	1	
1	0	0	0	0	521	510	0	1018	38	1	
2	0	0	0	0	529	508	0	1018	38	1	
3	0	0	0	0	516	508	0	1018	38	1	
4	0	0	0	0	509	507	0	1018	38	1	
5	0	0	0	0	504	507	0	1018	38	1	
6	0	0	0	0	492	507	0	1018	38	1	
7	0	0	0	0	525	507	0	1018	39	1	
8	0	0	0	0	545	511	0	1018	38	1	
9	0	0	0	0	544	510	0	1018	38	1	
10	0	0	0	0	529	510	0	1018	38	1	
11	0	0	0	0	511	509	0	1018	38	1	
12	0	0	0	0	504	507	0	1018	38	1	
13	0	0	0	0	490	507	0	1018	38	1	
14	0	0	0	0	468	507	0	1018	38	1	
15	0	0	0	0	471	509	0	1018	39	1	
0	0	0	0	0	498	510	0	1018	38	1	
1	0	0	0	0	513	510	0	1018	38	1	
2	0	0	0	0	507	510	0	1018	38	1	
3	0	0	0	0	499	509	0	1018	38	1	
4	0	0	0	0	499	511	0	1018	38	1	
5	0	0	0	0	502	509	0	1018	38	1	
6	0	0	0	0	502	507	0	1018	38	1	
7	0	0	0	0	512	508	0	1018	39	1	
8	0	0	0	0	518	510	0	1018	38	1	
9	0	0	0	0	524	510	0	1018	38	1	
10	0	0	0	0	520	509	0	1018	38	1	
11	0	0	0	0	525	508	0	1018	38	1	
12	0	0	0	0	533	507	0	1018	38	1	
13	0	0	0	0	544	505	0	1018	38	1	
14	0	0	0	0	539	506	0	1018	38	1	
15	0	0	0	0	503	505	0	1018	39	1	
0	0	0	0	0	467	507	0	1018	38	1	
1	0	0	0	0	470	508	0	1018	38	1	
2	0	0	0	0	502	508	0	1018	38	1	
3	0	0	0	0	529	511	0	1018	38	1	
4	0	0	0	0	503	511	0	1018	38	1	
5	0	0	0	0	479	511	0	1018	38	1	
6	0	0	0	0	497	510	0	1018	38	1	
7	0	0	0	0	508	509	0	1018	39	1	
8	0	0	0	0	522	510	0	1018	38	1	
9	0	0	0	0	523	510	0	1018	38	1	
10	0	0	0	0	507	510	0	1018	38	1	
11	0	0	0	0	499	507	0	1018	38	1	
12	0	0	0	0	502	508	0	1018	38	1	
13	0	0	0	0	511	506	0	1018	38	1	
14	0	0	0	0	525	507	0	1018	38	1	
15	0	0	0	0	514	507	0	1018	39	1	
0	0	0	0	0	503	508	0	1018	38	1	
1	0	0	0	0	499	508	0	1018	38	1	
2	0	0	0	0	492	507	0	1018	38	1	
3	0	0	0	0	505	507	0	1018	38	1	
4	0	0	0	0	522	507	0	1018	38	1	
5	0	0	0	0	519	507	0	1018	38	1	
6	0	0	0	0	514	509	0	1018	38	1	
7	0	0	0	0	522	508	0	1018	39	1	
8	0	0	0	0	534	508	0	1018	38	1	
9	0	0	0	0	539	506	0	1018	38	1	
10	0	0	0	0	541	506	0	1018	38	1	
11	0	0	0	0	532	507	0	1018	38	1	
12	0	0	0	0	512	505	0	1018	38	1	
13	0	0	0	0	500	505	0	1018	38	1	
14	0	0	0	0	488	505	0	1018	38	1	
15	0	0	0	0	465	506	0	1018	39	1	
0	0	0	0	0	471	505	0	1018	38	1	
1	0	0	0	0	487	507	0	1018	38	1	
2	0	0	0	0	500	507	0	1018	38	1	
3	0	0	0	0	496	507	0	1018	38	1	
4	0	0	0	0	486	507	0	1018	38	1	
5	0	0	0	0	479	508	0	1018	38	1	
6	0	0	0	0	502	508	0	1018	38	1	
7	0	0	0	0	539	509	0	1018	39	1	
8	0	0	0	0	549	510	0	1018	38	1	
9	0	0	0	0	522	509	0	1018	38	1	
10	0	0	0	0	526	508	0	1018	38	1	
11	0	0	0	0	542	509	0	1018	38	1	
12	0	0	0	0	526	509	0	1018	38	1	
13	0	0	0	0	531	507	0	1018	38	1	
14	0	0	0	0	533	506	0	1018	38	1	
15	0	0	0	0	517	505	0	1018	39	1	
0	0	0	0	0	497	504	0	1018	38	1	
1	0	0	0	0	477	503	0	1018	38	1	
2	0	0	0	0	483	505	0	1018	38	1	
3	0	0	0	0	503	504	0	1018	38	1	
4	0	0	0	0	503	505	0	1018	38	1	
5	0	0	0	0	509	507	0	1018	38	1	
6	0	0	0	0	512	505	0	1018	38	1	
7	0	0	0	0	524	507	0	1018	39	1	
8	0	0	0	0	529	508	0	1018	38	1	
9	0	0	0	0	515	507	0	1018	38	1	
10	0	0	0	0	492	508	0	1018	38	1	
11	0	0	0	0	497	508	0	1018	38	1	
12	0	0	0	0	501	508	0	1018	38	1	
13	0	0	0	0	497	507	0	1018	38	1	
14	0	0	0	0	487	507	0	1018	38	1	
15	0	0	0	0	519	505	0	1018	39	1	
0	0	0	0	0	531	504	0	1018	38	1	
1	0	0	0	0	511	505	0	1017	38	1	
2	0	0	0	0	507	504	0	868	38	1	
3	0	0	0	0	513	505	0	684	38	1	
4	0	0	0	0	512	506	0	574	38	1	
5	0	0	0	0	511	505	0	587	38	1	
6	0	0	0	0	515	506	0	569	38	1	
7	0	0	0	0	508	508	0	516	39	1	
8	0	0	0	0	498	509	0	419	38	1	
9	0	0	0	0	506	508	0	382	38	1	
10	0	0	0	0	511	506	0	294	38	1	
11	0	0	0	0	519	505	0	183	38	1	
12	0	0	0	0	521	503	0	73	38	1	
13	0	0	0	0	530	505	0	94	38	1	
14	0	0	0	0	536	505	0	234	38	1	
15	0	0	0	0	529	504	0	395	39	1	
0	0	0	0	0	513	505	0	572	38	1	
1	0	0	0	0	494	506	0	790	38	1	
2	0	0	0	0	457	504	0	1008	38	1	
3	0	0	0	0	431	505	0	1017	38	1	
4	0	0	0	0	461	506	0	1018	38	1	
5	0	0	0	0	496	506	0	1018	38	1	
6	0	0	0	0	519	509	0	1017	38	1	
7	0	0	0	0	526	508	0	659	39	1	
8	0	0	0	0	532	508	0	143	38	1	
9	0	0	0	0	529	508	0	0	38	1	
10	0	0	0	0	534	509	0	0	38	1	
11	0	0	0	0	534	510	0	0	38	1	
12	0	0	0	0	535	511	0	0	38	1	
13	0	0	0	0	512	511	0	0	38	1	
14	0	0	0	0	490	509	0	0	38	1	
15	0	0	0	0	465	508	0	0	39	1	
0	0	0	0	0	461	508	0	0	38	1	
1	0	0	0	0	465	508	0	0	38	1	
2	0	0	0	0	479	508	0	0	38	1	
3	0	0	0	0	499	508	0	0	38	1	
4	0	0	0	0	520	509	0	0	38	1	
5	0	0	0	0	531	510	0	0	38	1	
6	0	0	0	0	531	512	0	380	38	1	
7	0	0	0	0	523	512	0	609	39	1	
8	0	0	0	0	521	510	0	829	38	1	
9	0	0	0	0	527	510	0	805	38	1	
10	0	0	0	0	520	509	0	515	38	1	
11	0	0	0	0	516	510	0	146	38	1	
12	0	0	0	0	527	511	0	0	38	1	
13	0	0	0	0	536	510	0	0	38	1	
14	0	0	0	0	541	509	0	0	38	1	
15	0	0	0	0	543	507	0	0	39	1	
0	0	0	0	0	527	506	0	0	38	1	
1	0	0	0	0	506	507	0	0	38	1	
2	0	0	0	0	484	505	0	0	38	1	
3	0	0	0	0	471	506	0	0	38	1	
4	0	0	0	0	469	507	0	150	38	1	
5	0	0	0	0	485	508	0	218	38	1	
6	0	0	0	0	523	508	0	172	38	1	
7	0	0	0	0	526	508	0	3	39	1	
8	0	0	0	0	517	510	0	0	38	1	
9	0	0	0	0	505	510	0	0	38	1	
10	0	0	0	0	505	508	0	0	38	1	
11	0	0	0	0	510	508	0	0	38	1	
12	0	0	0	0	500	507	0	0	38	1	
13	0	0	0	0	525	508	0	0	38	1	
14	0	0	0	0	536	508	0	0	38	1	
15	0	0	0	0	521	508	0	0	39	1	
0	0	0	0	0	502	510	0	0	38	1	
1	0	0	0	0	507	510	0	0	38	1	
2	0	0	0	0	508	509	0	0	38	1	
3	0	0	0	0	514	509	0	0	38	1	
4	0	0	0	0	509	508	0	0	38	1	
5	0	0	0	0	508	509	0	0	38	1	
6	0	0	0	0	502	508	0	0	38	1	
7	0	0	0	0	488	508	0	0	39	1	
8	0	0	0	0	483	507	0	0	38	1	
9	0	0	0	0	494	510	0	0	38	1	
10	0	0	0	0	496	511	0	0	38	1	
11	0	0	0	0	514	510	0	0	38	1	
12	0	0	0	0	518	508	0	0	38	1	
13	0	0	0	0	512	509	0	0	38	1	
14	0	0	0	0	511	508	0	0	38	1	
15	0	0	0	0	518	506	0	0	39	1	
0	0	0	0	0	515	505	0	0	38	1	
1	0	0	0	0	508	507	0	0	38	1	
2	0	0	0	0	515	507	0	0	38	1	
3	0	0	0	0	516	507	0	0	38	1	
4	0	0	0	0	514	508	0	0	38	1	
5	0	0	0	0	525	508	0	0	38	1	
6	0	0	0	0	523	509	0	364	38	1	
7	0	0	0	0	517	511	0	911	39	1	
8	0	0	0	0	492	513	0	1018	38	1	
9	0	0	0	0	479	513	0	1018	38	1	
10	0	0	0	0	489	511	0	1018	38	1	
11	0	0	0	0	503	511	0	1018	38	1	
12	0	0	0	0	513	510	0	1018	38	1	
13	0	0	0	0	512	510	0	680	38	1	
14	0	0	0	0	504	511	0	214	38	1	
15	0	0	0	0	503	510	0	0	39	1	
0	0	0	0	0	523	507	0	0	38	1	
1	0	0	0	0	523	507	0	0	38	1	
2	0	0	0	0	523	506	0	0	38	1	
3	0	0	0	0	523	505	0	0	38	1	
4	0	0	0	0	522	504	0	0	38	1	
5	0	0	0	0	516	507	0	466	38	1	
6	0	0	0	0	503	508	0	913	38	1	
7	0	0	0	0	488	506	0	1018	39	1	
8	0	0	0	0	478	508	0	1018	38	1	
9	0	0	0	0	487	510	0	1018	38	1	
10	0	0	0	0	493	512	0	1018	38	1	
11	0	0	0	0	484	511	0	1018	38	1	
12	0	0	0	0	504	510	0	1018	38	1	
13	0	0	0	0	516	510	0	1018	38	1	
14	0	0	0	0	515	509	0	1018	38	1	
15	0	0	0	0	518	509	0	1018	39	1	
0	0	0	0	0	528	511	0	1018	38	1	
1	0	0	0	0	517	509	0	1018	38	1	
2	0	0	0	0	504	509	0	1017	38	1	
3	0	0	0	0	504	507	0	1018	38	1	
4	0	0	0	0	500	506	0	1018	38	1	
5	0	0	0	0	503	507	0	1017	38	1	
6	0	0	0	0	518	508	0	1018	38	1	
7	0	0	0	0	532	510	0	1018	39	1	
8	0	0	0	0	527	509	0	1018	38	1	
9	0	0	0	0	515	510	0	1018	38	1	
10	0	0	0	0	511	510	0	1018	38	1	
11	0	0	0	0	512	509	0	1018	38	1	
12	0	0	0	0	505	511	0	1018	38	1	
13	0	0	0	0	489	510	0	1018	38	1	
14	0	0	0	0	482	510	0	1018	38	1	
15	0	0	0	0	494	510	0	1018	39	1	
0	0	0	0	0	506	511	0	1018	38	1	
1	0	0	0	0	515	510	0	1018	38	1	
2	0	0	0	0	514	510	0	1018	38	1	
3	0	0	0	0	516	508	0	1018	38	1	
4	0	0	0	0	506	507	0	1018	38	1	
5	0	0	0	0	515	505	0	1018	38	1	
6	0	0	0	0	528	506	0	1018	38	1	
7	0	0	0	0	520	507	0	1018	39	1	
8	0	0	0	0	519	508	0	1018	38	1	
9	0	0	0	0	524	509	0	1018	38	1	
10	0	0	0	0	526	510	0	1018	38	1	
11	0	0	0	0	516	511	0	1018	38	1	
12	0	0	0	0	505	509	0	1018	38	1	
13	0	0	0	0	507	510	0	1018	38	1	
14	0	0	0	0	514	509	0	1018	38	1	
15	0	0	0	0	507	512	0	1018	39	1	
0	0	0	0	0	524	510	0	1018	38	1	
1	0	0	0	0	534	508	0	1018	38	1	
2	0	0	0	0	514	508	0	1018	38	1	
3	0	0	0	0	502	507	0	1018	38	1	
4	0	0	0	0	500	506	0	1018	38	1	
5	0	0	0	0	487	504	0	1018	38	1	
6	0	0	0	0	477	502	0	1018	38	1	
7	0	0	0	0	480	502	0	1018	39	1	
8	0	0	0	0	492	504	0	1018	38	1	
9	0	0	0	0	504	507	0	1018	38	1	
10	0	0	0	0	512	508	0	1018	38	1	
11	0	0	0	0	515	509	0	1018	38	1	
12	0	0	0	0	511	509	0	1018	38	1	
13	0	0	0	0	511	509	0	1018	38	1	
14	0	0	0	0	517	509	0	1018	38	1	
15	0	0	0	0	514	510	0	1018	39	1	
0	0	0	0	0	510	507	0	1018	38	1	
1	0	0	0	0	516	508	0	1018	38	1	
2	0	0	0	0	514	508	0	1018	38	1	
3	0	0	0	0	515	507	0	1018	38	1	
4	0	0	0	0	523	507	0	1018	38	1	
5	0	0	0	0	520	506	0	1018	38	1	
6	0	0	0	0	515	505	0	1018	38	1	
7	0	0	0	0	515	506	0	1018	39	1	
8	0	0	0	0	512	507	0	1018	38	1	
9	0	0	0	0	511	508	0	1018	38	1	
10	0	0	0	0	510	508	0	1018	38	1	
11	0	0	0	0	505	510	0	1018	38	1	
12	0	0	0	0	501	510	0	1018	38	1	
13	0	0	0	0	511	511	0	1018	38	1	
14	0	0	0	0	498	510	0	1018	38	1	
15	0	0	0	0	516	511	0	1018	39	1	
0	0	0	0	0	537	510	0	1018	38	1	
1	0	0	0	0	518	510	0	1018	38	1	
2	0	0	0	0	492	509	0	1018	38	1	
3	0	0	0	0	496	508	0	1018	38	1	
4	0	0	0	0	524	507	0	1018	38	1	
5	0	0	0	0	550	508	0	1018	38	1	
6	0	0	0	0	543	507	0	1018	38	1	
7	0	0	0	0	473	506	0	1018	39	1	
8	0	0	0	0	432	505	0	1018	38	1	
9	0	0	0	0	457	506	0	1018	38	1	
10	0	0	0	0	493	507	0	1018	38	1	
11	0	0	0	0	499	507	0	1018	38	1	
12	0	0	0	0	480	508	0	1018	38	1	
13	0	0	0	0	496	510	0	1018	38	1	
14	0	0	0	0	517	510	0	1018	38	1	
15	0	0	0	0	520	509	0	1018	39	1	
0	0	0	0	0	517	510	0	1018	38	1	
1	0	0	0	0	515	509	0	1018	38	1	
2	0	0	0	0	519	510	0	1018	38	1	
3	0	0	0	0	523	510	0	1018	38	1	
4	0	0	0	0	519	509	0	1018	38	1	
5	0	0	0	0	504	508	0	1018	38	1	
6	0	0	0	0	530	509	0	1018	38	1	
7	0	0	0	0	545	508	0	1018	39	1	
8	0	0	0	0	542	505	0	1018	38	1	
9	0	0	0	0	521	505	0	1018	38	1	
10	0	0	0	0	507	506	0	1018	38	1	
11	0	0	0	0	489	505	0	1018	38	1	
12	0	0	0	0	494	508	0	1018	38	1	
13	0	0	0	0	501	508	0	1018	38	1	
14	0	0	0	0	510	507	0	1018	38	1	
15	0	0	0	0	521	508	0	1018	39	1	
0	0	0	0	0	516	509	0	1018	38	1	
1	0	0	0	0	512	510	0	1018	38	1	
2	0	0	0	0	505	508	0	1018	38	1	
3	0	0	0	0	499	508	0	1018	38	1	
4	0	0	0	0	510	508	0	1018	38	1	
5	0	0	0	0	512	508	0	1018	38	1	
6	0	0	0	0	505	506	0	1018	38	1	
7	0	0	0	0	495	504	0	1018	39	1	
8	0	0	0	0	501	504	0	1018	38	1	
9	0	0	0	0	509	504	0	1018	38	1	
10	0	0	0	0	505	504	0	1018	38	1	
11	0	0	0	0	502	504	0	1018	38	1	
12	0	0	0	0	502	505	0	1018	38	1	
13	0	0	0	0	510	508	0	1018	38	1	
14	0	0	0	0	511	509	0	1018	38	1	
15	0	0	0	0	518	509	0	1018	39	1	
0	0	0	0	0	516	510	0	1018	38	1	
1	0	0	0	0	517	511	0	1018	38	1	
2	0	0	0	0	513	510	0	1018	38	1	
3	0	0	0	0	518	509	0	1018	38	1	
4	0	0	0	0	521	508	0	1018	38	1	
5	0	0	0	0	514	505	0	1017	38	1	
6	0	0	0	0	504	503	0	1017	38	1	
7	0	0	0	0	501	503	0	1018	39	1	
8	0	0	0	0	505	503	0	1018	38	1	
9	0	0	0	0	504	504	0	1018	38	1	
10	0	0	0	0	506	505	0	1018	38	1	
11	0	0	0	0	507	505	0	1018	38	1	
12	0	0	0	0	514	505	0	1018	38	1	
13	0	0	0	0	512	508	0	1018	38	1	
14	0	0	0	0	514	509	0	1018	38	1	
15	0	0	0	0	510	510	0	1018	39	1	
0	0	0	0	0	499	508	0	1018	38	1	
1	0	0	0	0	492	509	0	1018	38	1	
2	0	0	0	0	498	507	0	1018	38	1	
3	0	0	0	0	515	507	0	891	38	1	
4	0	0	0	0	511	507	0	348	38	1	
5	0	0	0	0	492	507	0	0	38	1	
6	0	0	0	0	495	505	0	0	38	1	
7	0	0	0	0	506	507	0	0	39	1	
8	0	0	0	0	518	506	0	0	38	1	
9	0	0	0	0	519	505	0	0	38	1	
10	0	0	0	0	518	504	0	0	38	1	
11	0	0	0	0	512	503	0	0	38	1	
12	0	0	0	0	513	504	0	0	38	1	
13	0	0	0	0	515	505	0	0	38	1	
14	0	0	0	0	519	506	0	0	38	1	
15	0	0	0	0	515	507	0	0	39	1	
0	0	0	0	0	508	507	0	0	38	1	
1	0	0	0	0	524	508	0	0	38	1	
2	0	0	0	0	540	508	0	0	38	1	
3	0	0	0	0	528	507	0	0	38	1	
4	0	0	0	0	492	508	0	0	38	1	
5	0	0	0	0	494	505	0	0	38	1	
6	0	0	0	0	526	507	0	0	38	1	
7	0	0	0	0	537	508	0	0	39	1	
8	0	0	0	0	527	508	0	0	38	1	
9	0	0	0	0	510	505	0	0	38	1	
10	0	0	0	0	499	506	0	0	38	1	
11	0	0	0	0	477	505	0	0	38	1	
12	0	0	0	0	446	507	0	0	38	1	
13	0	0	0	0	463	509	0	0	38	1	
14	0	0	0	0	487	508	0	0	38	1	
15	0	0	0	0	490	509	0	0	39	1	
0	0	0	0	0	484	511	0	0	38	1	
1	0	0	0	0	507	511	0	0	38	1	
2	0	0	0	0	516	510	0	0	38	1	
3	0	0	0	0	503	510	0	0	38	1	
4	0	0	0	0	488	508	0	0	38	1	
5	0	0	0	0	515	508	0	0	38	1	
6	0	0	0	0	545	507	0	0	38	1	
7	0	0	0	0	528	507	0	0	39	1	
8	0	0	0	0	523	504	0	0	38	1	
9	0	0	0	0	531	505	0	0	38	1	
10	0	0	0	0	540	503	0	0	38	1	
11	0	0	0	0	528	502	0	0	38	1	
12	0	0	0	0	518	502	0	0	38	1	
13	0	0	0	0	511	504	0	0	38	1	
14	0	0	0	0	513	504	0	0	38	1	
15	0	0	0	0	488	504	0	0	39	1	
0	0	0	0	0	487	505	0	0	38	1	
1	0	0	0	0	507	505	0	0	38	1	
2	0	0	0	0	513	503	0	0	38	1	
3	0	0	0	0	510	503	0	0	38	1	
4	0	0	0	0	514	504	0	0	38	1	
5	0	0	0	0	504	504	0	0	38	1	
6	0	0	0	0	497	505	0	0	38	1	
7	0	0	0	0	508	506	0	0	39	1	
8	0	0	0	0	515	506	0	0	38	1	
9	0	0	0	0	515	505	0	0	38	1	
10	0	0	0	0	515	506	0	0	38	1	
11	0	0	0	0	511	506	0	0	38	1	
12	0	0	0	0	512	506	0	0	38	1	
13	0	0	0	0	505	507	0	0	38	1	
14	0	0	0	0	502	508	0	0	38	1	
15	0	0	0	0	493	511	0	0	39	1	
0	0	0	0	0	494	511	0	0	38	1	
1	0	0	0	0	496	510	0	0	38	1	
2	0	0	0	0	504	511	0	0	38	1	
3	0	0	0	0	513	511	0	0	38	1	
4	0	0	0	0	515	510	0	0	38	1	
5	0	0	0	0	516	508	0	0	38	1	
6	0	0	0	0	523	509	0	0	38	1	
7	0	0	0	0	521	509	0	0	39	1	
8	0	0	0	0	517	508	0	0	38	1	
9	0	0	0	0	515	506	0	0	38	1	
10	0	0	0	0	506	507	0	0	38	1	
11	0	0	0	0	496	506	0	0	38	1	
12	0	0	0	0	497	507	0	0	38	1	
13	0	0	0	0	500	508	0	0	38	1	
14	0	0	0	0	503	509	0	0	38	1	
15	0	0	0	0	505	509	0	0	39	1	
0	0	0	0	0	504	510	0	0	38	1	
1	0	0	0	0	505	510	0	0	38	1	
2	0	0	0	0	508	510	0	0	38	1	
3	0	0	0	0	497	511	0	0	38	1	
4	0	0	0	0	511	510	0	0	38	1	
5	0	0	0	0	527	510	0	0	38	1	
6	0	0	0	0	531	508	0	0	38	1	
7	0	0	0	0	528	507	0	0	39	1	
8	0	0	0	0	513	507	0	0	38	1	
9	0	0	0	0	506	507	0	0	38	1	
10	0	0	0	0	513	507	0	0	38	1	
11	0	0	0	0	518	507	0	0	38	1	
12	0	0	0	0	517	504	0	0	38	1	
13	0	0	0	0	500	506	0	0	38	1	
14	0	0	0	0	510	505	0	0	38	1	
15	0	0	0	0	495	505	0	0	39	1	
0	0	0	0	0	499	507	0	0	38	1	
1	0	0	0	0	508	508	0	0	38	1	
2	0	0	0	0	522	508	0	0	38	1	
3	0	0	0	0	516	509	0	0	38	1	
4	0	0	0	0	513	511	0	0	38	1	
5	0	0	0	0	516	511	0	0	38	1	
6	0	0	0	0	514	512	0	0	38	1	
7	0	0	0	0	494	512	0	0	39	1	
8	0	0	0	0	485	512	0	0	38	1	
9	0	0	0	0	495	510	0	0	38	1	
10	0	0	0	0	500	510	0	0	38	1	
11	0	0	0	0	515	509	0	0	38	1	
12	0	0	0	0	542	510	0	0	38	1	
13	0	0	0	0	554	510	0	0	38	1	
14	0	0	0	0	507	509	0	0	38	1	
15	0	0	0	0	479	510	0	0	39	1	
0	0	0	0	0	498	511	0	0	38	1	
1	0	0	0	0	515	512	0	0	38	1	
2	0	0	0	0	505	511	0	0	38	1	
3	0	0	0	0	518	510	0	0	38	1	
4	0	0	0	0	556	511	0	0	38	1	
5	0	0	0	0	533	511	0	0	38	1	
6	0	0	0	0	495	512	0	0	38	1	
7	0	0	0	0	469	513	0	0	39	1	
8	0	0	0	0	477	512	0	0	38	1	
9	0	0	0	0	496	511	0	0	38	1	
10	0	0	0	0	503	509	0	0	38	1	
11	0	0	0	0	498	508	0	0	38	1	
12	0	0	0	0	499	505	0	0	38	1	
13	0	0	0	0	479	504	0	0	38	1	
14	0	0	0	0	475	504	0	0	38	1	
15	0	0	0	0	504	502	0	0	39	1	
0	0	0	0	0	516	503	0	0	38	1	
1	0	0	0	0	516	504	0	0	38	1	
2	0	0	0	0	516	506	0	0	38	1	
3	0	0	0	0	519	506	0	0	38	1	
4	0	0	0	0	521	508	0	0	38	1	
5	0	0	0	0	510	507	0	0	38	1	
6	0	0	0	0	512	507	0	0	38	1	
7	0	0	0	0	507	507	0	0	39	1	
8	0	0	0	0	512	508	0	0	38	1	
9	0	0	0	0	515	508	0	0	38	1	
10	0	0	0	0	518	509	0	0	38	1	
11	0	0	0	0	518	508	0	0	38	1	
12	0	0	0	0	522	506	0	0	38	1	
13	0	0	0	0	525	506	0	0	38	1	
14	0	0	0	0	524	505	0	0	38	1	
15	0	0	0	0	522	504	0	0	39	1	
0	0	0	0	0	508	504	0	0	38	1	
1	0	0	0	0	504	506	0	0	38	1	
2	0	0	0	0	501	508	0	0	38	1	
3	0	0	0	0	493	508	0	0	38	1	
4	0	0	0	0	492	510	0	0	38	1	
5	0	0	0	0	500	511	0	0	38	1	
6	0	0	0	0	510	510	0	0	38	1	
7	0	0	0	0	515	508	0	0	39	1	
8	0	0	0	0	519	509	0	0	38	1	
9	0	0	0	0	518	508	0	0	38	1	
10	0	0	0	0	517	508	0	0	38	1	
11	0	0	0	0	517	508	0	0	38	1	
12	0	0	0	0	511	507	0	0	38	1	
13	0	0	0	0	503	505	0	0	38	1	
14	0	0	0	0	492	505	0	0	38	1	
15	0	0	0	0	492	504	0	0	39	1	
0	0	0	0	0	490	506	0	0	38	1	
1	0	0	0	0	500	508	0	0	38	1	
2	0	0	0	0	502	509	0	0	38	1	
3	0	0	0	0	512	509	0	0	38	1	
4	0	0	0	0	527	509	0	0	38	1	
5	0	0	0	0	527	510	0	0	38	1	
6	0	0	0	0	513	509	0	0	38	1	
7	0	0	0	0	513	508	0	0	39	1	
8	0	0	0	0	513	507	0	0	38	1	
9	0	0	0	0	504	506	0	0	38	1	
10	0	0	0	0	509	506	0	0	38	1	
11	0	0	0	0	519	507	0	0	38	1	
12	0	0	0	0	517	505	0	0	38	1	
13	0	0	0	0	522	506	0	0	38	1	
14	0	0	0	0	524	505	0	0	38	1	
15	0	0	0	0	510	505	0	0	39	1	
0	0	0	0	0	504	504	0	0	38	1	
1	0	0	0	0	524	504	0	0	38	1	
2	0	0	0	0	530	505	0	0	38	1	
3	0	0	0	0	520	504	0	0	38	1	
4	0	0	0	0	498	506	0	0	38	1	
5	0	0	0	0	459	506	0	0	38	1	
6	0	0	0	0	468	507	0	24	38	1	
7	0	0	0	0	507	509	0	0	39	1	
8	0	0	0	0	516	510	0	0	38	1	
9	0	0	0	0	507	508	0	0	38	1	
10	0	0	0	0	499	509	0	0	38	1	
11	0	0	0	0	500	510	0	0	38	1	
12	0	0	0	0	479	512	0	0	38	1	
13	0	0	0	0	503	511	0	0	38	1	
14	0	0	0	0	519	510	0	0	38	1	
15	0	0	0	0	509	511	0	0	39	1	
0	0	0	0	0	480	508	0	0	38	1	
1	0	0	0	0	520	508	0	0	38	1	
2	0	0	0	0	551	506	0	0	38	1	
3	0	0	0	0	554	506	0	280	38	1	
4	0	0	0	0	536	507	0	624	38	1	
5	0	0	0	0	510	507	0	801	38	1	
6	0	0	0	0	475	509	0	863	38	1	
7	0	0	0	0	465	509	0	875	39	1	
8	0	0	0	0	484	508	0	879	38	1	
9	0	0	0	0	505	508	0	883	38	1	
10	0	0	0	0	521	509	0	874	38	1	
11	0	0	0	0	528	511	0	695	38	1	
12	0	0	0	0	519	513	0	559	38	1	
13	0	0	0	0	507	511	0	614	38	1	
14	0	0	0	0	515	511	0	745	38	1	
15	0	0	0	0	503	511	0	943	39	1	
0	0	0	0	0	508	509	0	1018	38	1	
1	0	0	0	0	519	507	0	1018	38	1	
2	0	0	0	0	520	508	0	1018	38	1	
3	0	0	0	0	507	507	0	1018	38	1	
4	0	0	0	0	501	509	0	1018	38	1	
5	0	0	0	0	498	510	0	1018	38	1	
6	0	0	0	0	509	510	0	1018	38	1	
7	0	0	0	0	516	510	0	1018	39	1	
8	0	0	0	0	506	511	0	1018	38	1	
9	0	0	0	0	519	511	0	1018	38	1	
10	0	0	0	0	515	510	0	1018	38	1	
11	0	0	0	0	513	510	0	1018	38	1	
12	0	0	0	0	507	510	0	1018	38	1	
13	0	0	0	0	510	510	0	1018	38	1	
14	0	0	0	0	518	512	0	1018	38	1	
15	0	0	0	0	510	509	0	1018	39	1	
0	0	0	0	0	505	507	0	1018	38	1	
1	0	0	0	0	504	507	0	1018	38	1	
2	0	0	0	0	503	506	0	1018	38	1	
3	0	0	0	0	495	505	0	1018	38	1	
4	0	0	0	0	509	507	0	1018	38	1	
5	0	0	0	0	533	508	0	1018	38	1	
6	0	0	0	0	538	509	0	1018	38	1	
7	0	0	0	0	519	509	0	1018	39	1	
8	0	0	0	0	505	509	0	1018	38	1	
9	0	0	0	0	501	509	0	1018	38	1	
10	0	0	0	0	499	508	0	1018	38	1	
11	0	0	0	0	500	508	0	1018	38	1	
12	0	0	0	0	504	510	0	1018	38	1	
13	0	0	0	0	506	511	0	1018	38	1	
14	0	0	0	0	503	511	0	722	38	1	
15	0	0	0	0	505	508	0	496	39	1	
0	0	0	0	0	507	507	0	347	38	1	
1	0	0	0	0	503	505	0	324	38	1	
2	0	0	0	0	506	504	0	569	38	1	
3	0	0	0	0	510	504	0	881	38	1	
4	0	0	0	0	515	504	0	1018	38	1	
5	0	0	0	0	511	506	0	1018	38	1	
6	0	0	0	0	516	507	0	1018	38	1	
7	0	0	0	0	530	509	0	1018	39	1	
8	0	0	0	0	521	510	0	1018	38	1	
9	0	0	0	0	515	508	0	1018	38	1	
10	0	0	0	0	513	508	0	1018	38	1	
11	0	0	0	0	514	511	0	1018	38	1	
12	0	0	0	0	512	510	0	1018	38	1	
13	0	0	0	0	497	510	0	1018	38	1	
14	0	0	0	0	515	510	0	1018	38	1	
15	0	0	0	0	522	509	0	1018	39	1	
0	0	0	0	0	508	510	0	1018	38	1	
1	0	0	0	0	517	509	0	1018	38	1	
2	0	0	0	0	531	509	0	1018	38	1	
3	0	0	0	0	502	509	0	1018	38	1	
4	0	0	0	0	459	507	0	1018	38	1	
5	0	0	0	0	453	504	0	1018	38	1	
6	0	0	0	0	467	505	0	1018	38	1	
7	0	0	0	0	476	504	0	1018	39	1	
8	0	0	0	0	493	506	0	1018	38	1	
9	0	0	0	0	517	507	0	1018	38	1	
10	0	0	0	0	539	510	0	1018	38	1	
11	0	0	0	0	544	508	0	1018	38	1	
12	0	0	0	0	534	507	0	1018	38	1	
13	0	0	0	0	518	509	0	1018	38	1	
14	0	0	0	0	492	510	0	1017	38	1	
15	0	0	0	0	472	511	0	422	39	1	
0	0	0	0	0	484	511	0	0	38	1	
1	0	0	0	0	507	511	0	0	38	1	
2	0	0	0	0	528	510	0	0	38	1	
3	0	0	0	0	531	507	0	0	38	1	
4	0	0	0	0	524	508	0	0	38	1	
5	0	0	0	0	524	505	0	0	38	1	
6	0	0	0	0	513	507	0	0	38	1	
7	0	0	0	0	508	508	0	0	39	1	
8	0	0	0	0	524	508	0	0	38	1	
9	0	0	0	0	531	510	0	0	38	1	
10	0	0	0	0	526	512	0	0	38	1	
11	0	0	0	0	514	511	0	0	38	1	
12	0	0	0	0	507	510	0	0	38	1	
13	0	0	0	0	502	510	0	0	38	1	
14	0	0	0	0	489	508	0	0	38	1	
15	0	0	0	0	480	508	0	0	39	1	
0	0	0	0	0	477	508	0	0	38	1	
1	0	0	0	0	499	507	0	0	38	1	
2	0	0	0	0	509	508	0	0	38	1	
3	0	0	0	0	509	507	0	0	38	1	
4	0	0	0	0	511	505	0	0	38	1	
5	0	0	0	0	508	503	0	0	38	1	
6	0	0	0	0	532	503	0	0	38	1	
7	0	0	0	0	534	503	0	0	39	1	
8	0	0	0	0	522	506	0	0	38	1	
9	0	0	0	0	532	508	0	0	38	1	
10	0	0	0	0	519	509	0	412	38	1	
11	0	0	0	0	507	508	0	835	38	1	
12	0	0	0	0	501	507	0	1018	38	1	
13	0	0	0	0	502	507	0	1018	38	1	
14	0	0	0	0	507	506	0	1018	38	1	
15	0	0	0	0	502	508	0	1018	39	1	
0	0	0	0	0	496	509	0	1018	38	1	
1	0	0	0	0	499	508	0	1018	38	1	
2	0	0	0	0	509	508	0	1018	38	1	
3	0	0	0	0	512	509	0	1018	38	1	
4	0	0	0	0	502	509	0	1018	38	1	
5	0	0	0	0	514	508	0	1018	38	1	
6	0	0	0	0	531	507	0	1018	38	1	
7	0	0	0	0	526	507	0	1018	39	1	
8	0	0	0	0	514	508	0	1018	38	1	
9	0	0	0	0	503	508	0	1018	38	1	
10	0	0	0	0	497	510	0	1018	38	1	
11	0	0	0	0	504	509	0	1018	38	1	
12	0	0	0	0	503	508	0	1018	38	1	
13	0	0	0	0	520	510	0	1018	38	1	
14	0	0	0	0	519	511	0	1018	38	1	
15	0	0	0	0	508	511	0	1018	39	1	
0	0	0	0	0	504	509	0	1018	38	1	
1	0	0	0	0	508	512	0	1018	38	1	
2	0	0	0	0	503	511	0	1018	38	1	
3	0	0	0	0	511	508	0	1018	38	1	
4	0	0	0	0	518	507	0	1018	38	1	
5	0	0	0	0	523	507	0	1017	38	1	
6	0	0	0	0	527	506	0	890	38	1	
7	0	0	0	0	515	506	0	793	39	1	
8	0	0	0	0	498	507	0	656	38	1	
9	0	0	0	0	499	505	0	594	38	1	
10	0	0	0	0	506	504	0	617	38	1	
11	0	0	0	0	513	507	0	694	38	1	
12	0	0	0	0	520	507	0	871	38	1	
13	0	0	0	0	512	506	0	884	38	1	
14	0	0	0	0	486	506	0	918	38	1	
15	0	0	0	0	476	507	0	699	39	1	
0	0	0	0	0	483	506	0	265	38	1	
1	0	0	0	0	488	505	0	0	38	1	
2	0	0	0	0	497	507	0	0	38	1	
3	0	0	0	0	512	506	0	0	38	1	
4	0	0	0	0	525	504	0	0	38	1	
5	0	0	0	0	530	507	0	0	38	1	
6	0	0	0	0	528	505	0	0	38	1	
7	0	0	0	0	519	505	0	0	39	1	
8	0	0	0	0	519	507	0	0	38	1	
9	0	0	0	0	521	505	0	0	38	1	
10	0	0	0	0	519	504	0	0	38	1	
11	0	0	0	0	502	505	0	0	38	1	
12	0	0	0	0	474	508	0	0	38	1	
13	0	0	0	0	468	509	0	154	38	1	
14	0	0	0	0	492	508	0	64	38	1	
15	0	0	0	0	532	507	0	0	39	1	
0	0	0	0	0	544	505	0	0	38	1	
1	0	0	0	0	521	505	0	0	38	1	
2	0	0	0	0	494	507	0	0	38	1	
3	0	0	0	0	488	506	0	0	38	1	
4	0	0	0	0	493	505	0	0	38	1	
5	0	0	0	0	497	506	0	0	38	1	
6	0	0	0	0	499	507	0	0	38	1	
7	0	0	0	0	523	505	0	0	39	1	
8	0	0	0	0	524	505	0	0	38	1	
9	0	0	0	0	523	505	0	848	38	1	
10	0	0	0	0	510	505	0	1018	38	1	
11	0	0	0	0	503	507	0	1018	38	1	
12	0	0	0	0	511	506	0	1018	38	1	
13	0	0	0	0	512	507	0	1018	38	1	
14	0	0	0	0	502	508	0	1018	38	1	
15	0	0	0	0	492	508	0	1018	39	1	
0	0	0	0	0	500	508	0	1018	38	1	
1	0	0	0	0	527	508	0	1018	38	1	
2	0	0	0	0	523	508	0	1018	38	1	
3	0	0	0	0	518	509	0	1018	38	1	
4	0	0	0	0	515	508	0	1018	38	1	
5	0	0	0	0	506	507	0	1018	38	1	
6	0	0	0	0	511	504	0	1018	38	1	
7	0	0	0	0	517	504	0	1018	39	1	
8	0	0	0	0	518	504	0	1018	38	1	
9	0	0	0	0	524	504	0	1017	38	1	
10	0	0	0	0	527	507	0	1018	38	1	
11	0	0	0	0	516	506	0	1018	38	1	
12	0	0	0	0	509	507	0	1018	38	1	
13	0	0	0	0	504	508	0	1018	38	1	
14	0	0	0	0	500	511	0	1018	38	1	
15	0	0	0	0	491	511	0	1018	39	1	
0	0	0	0	0	493	510	0	1018	38	1	
1	0	0	0	0	494	509	0	1018	38	1	
2	0	0	0	0	505	509	0	1018	38	1	
3	0	0	0	0	504	508	0	1018	38	1	
4	0	0	0	0	512	508	0	1018	38	1	
5	0	0	0	0	518	506	0	1018	38	1	
6	0	0	0	0	513	505	0	1018	38	1	
7	0	0	0	0	511	504	0	1018	39	1	
8	0	0	0	0	510	504	0	1018	38	1	
9	0	0	0	0	512	503	0	1018	38	1	
10	0	0	0	0	508	504	0	1018	38	1	
11	0	0	0	0	507	506	0	1018	38	1	
12	0	0	0	0	501	507	0	1018	38	1	
13	0	0	0	0	501	508	0	1018	38	1	
14	0	0	0	0	504	508	0	1018	38	1	
15	0	0	0	0	511	507	0	1018	39	1	
0	0	0	0	0	514	507	0	1018	38	1	
1	0	0	0	0	514	508	0	1018	38	1	
2	0	0	0	0	516	507	0	1018	38	1	
3	0	0	0	0	507	505	0	1017	38	1	
4	0	0	0	0	510	505	0	343	38	1	
5	0	0	0	0	521	504	0	0	38	1	
6	0	0	0	0	531	503	0	0	38	1	
7	0	0	0	0	528	504	0	0	39	1	
8	0	0	0	0	515	504	0	0	38	1	
9	0	0	0	0	518	504	0	0	38	1	
10	0	0	0	0	505	504	0	0	38	1	
11	0	0	0	0	481	504	0	0	38	1	
12	0	0	0	0	491	507	0	0	38	1	
13	0	0	0	0	521	508	0	0	38	1	
14	0	0	0	0	534	508	0	0	38	1	
15	0	0	0	0	522	508	0	0	39	1	
0	0	0	0	0	511	508	0	0	38	1	
1	0	0	0	0	493	508	0	0	38	1	
2	0	0	0	0	467	509	0	0	38	1	
3	0	0	0	0	474	507	0	0	38	1	
4	0	0	0	0	493	506	0	0	38	1	
5	0	0	0	0	522	507	0	0	38	1	
6	0	0	0	0	531	507	0	0	38	1	
7	0	0	0	0	521	505	0	0	39	1	
8	0	0	0	0	503	505	0	0	38	1	
9	0	0	0	0	494	504	0	0	38	1	
10	0	0	0	0	497	504	0	0	38	1	
11	0	0	0	0	515	505	0	0	38	1	
12	0	0	0	0	519	507	0	0	38	1	
13	0	0	0	0	527	508	0	0	38	1	
14	0	0	0	0	528	509	0	0	38	1	
15	0	0	0	0	514	508	0	0	39	1	
0	0	0	0	0	514	507	0	0	38	1	
1	0	0	0	0	515	507	0	0	38	1	
2	0	0	0	0	496	506	0	0	38	1	
3	0	0	0	0	499	507	0	0	38	1	
4	0	0	0	0	497	508	0	0	38	1	
5	0	0	0	0	500	510	0	0	38	1	
6	0	0	0	0	507	508	0	0	38	1	
7	0	0	0	0	509	506	0	0	39	1	
8	0	0	0	0	510	508	0	0	38	1	
9	0	0	0	0	515	507	0	0	38	1	
10	0	0	0	0	503	505	0	0	38	1	
11	0	0	0	0	497	503	0	0	38	1	
12	0	0	0	0	488	504	0	0	38	1	
13	0	0	0	0	482	504	0	0	38	1	
14	0	0	0	0	502	506	0	0	38	1	
15	0	0	0	0	539	505	0	0	39	1	
0	0	0	0	0	539	506	0	20	38	1	
1	0	0	0	0	528	507	0	0	38	1	
2	0	0	0	0	513	506	0	0	38	1	
3	0	0	0	0	502	508	0	0	38	1	
4	0	0	0	0	495	508	0	0	38	1	
5	0	0	0	0	496	509	0	0	38	1	
6	0	0	0	0	512	508	0	0	38	1	
7	0	0	0	0	513	508	0	0	39	1	
8	0	0	0	0	509	508	0	0	38	1	
9	0	0	0	0	509	510	0	0	38	1	
10	0	0	0	0	508	508	0	0	38	1	
11	0	0	0	0	502	506	0	0	38	1	
12	0	0	0	0	506	505	0	0	38	1	
13	0	0	0	0	503	505	0	0	38	1	
14	0	0	0	0	504	508	0	0	38	1	
15	0	0	0	0	504	510	0	0	39	1	
0	0	0	0	0	512	511	0	300	38	1	
1	0	0	0	0	517	512	0	525	38	1	
2	0	0	0	0	517	511	0	721	38	1	
3	0	0	0	0	521	510	0	896	38	1	
4	0	0	0	0	518	511	0	1017	38	1	
5	0	0	0	0	520	508	0	1017	38	1	
6	0	0	0	0	515	507	0	1018	38	1	
7	0	0	0	0	515	507	0	1018	39	1	
8	0	0	0	0	500	506	0	1018	38	1	
9	0	0	0	0	495	506	0	1018	38	1	
10	0	0	0	0	498	505	0	1018	38	1	
11	0	0	0	0	505	505	0	1018	38	1	
12	0	0	0	0	510	504	0	1018	38	1	
13	0	0	0	0	518	506	0	1018	38	1	
14	0	0	0	0	521	507	0	1018	38	1	
15	0	0	0	0	526	508	0	1018	39	1	
0	0	0	0	0	519	508	0	1018	38	1	
1	0	0	0	0	499	507	0	1018	38	1	
2	0	0	0	0	487	510	0	1018	38	1	
3	0	0	0	0	497	510	0	1018	38	1	
4	0	0	0	0	502	509	0	1018	38	1	
5	0	0	0	0	497	507	0	1018	38	1	
6	0	0	0	0	511	507	0	1018	38	1	
7	0	0	0	0	526	508	0	1018	39	1	
8	0	0	0	0	521	509	0	1018	38	1	
9	0	0	0	0	523	510	0	1018	38	1	
10	0	0	0	0	520	508	0	1018	38	1	
11	0	0	0	0	517	506	0	1018	38	1	
12	0	0	0	0	519	506	0	1018	38	1	
13	0	0	0	0	515	505	0	1018	38	1	
14	0	0	0	0	524	506	0	1018	38	1	
15	0	0	0	0	526	507	0	1018	39	1	
0	0	0	0	0	510	506	0	1018	38	1	
1	0	0	0	0	493	507	0	1018	38	1	
2	0	0	0	0	471	507	0	1018	38	1	
3	0	0	0	0	483	508	0	1018	38	1	
4	0	0	0	0	508	509	0	1018	38	1	
5	0	0	0	0	499	507	0	1018	38	1	
6	0	0	0	0	478	508	0	1018	38	1	
7	0	0	0	0	471	508	0	1018	39	1	
8	0	0	0	0	516	508	0	1018	38	1	
9	0	0	0	0	526	508	0	1018	38	1	
10	0	0	0	0	506	509	0	1018	38	1	
11	0	0	0	0	507	508	0	1018	38	1	
12	0	0	0	0	519	509	0	1018	38	1	
13	0	0	0	0	522	507	0	1018	38	1	
14	0	0	0	0	508	506	0	1018	38	1	
15	0	0	0	0	503	505	0	1018	39	1	
0	0	0	0	0	507	507	0	1018	38	1	
1	0	0	0	0	493	508	0	1018	38	1	
2	0	0	0	0	515	507	0	1018	38	1	
3	0	0	0	0	530	508	0	1018	38	1	
4	0	0	0	0	530	508	0	1018	38	1	
5	0	0	0	0	517	508	0	1018	38	1	
6	0	0	0	0	510	509	0	1018	38	1	
7	0	0	0	0	523	510	0	1017	39	1	
8	0	0	0	0	512	507	0	493	38	1	
9	0	0	0	0	509	509	0	40	38	1	
10	0	0	0	0	509	509	0	0	38	1	
11	0	0	0	0	505	508	0	0	38	1	
12	0	0	0	0	511	507	0	0	38	1	
13	0	0	0	0	510	505	0	0	38	1	
14	0	0	0	0	516	504	0	0	38	1	
15	0	0	0	0	522	505	0	0	39	1	
0	0	0	0	0	513	508	0	0	38	1	
1	0	0	0	0	517	508	0	0	38	1	
2	0	0	0	0	517	507	0	0	38	1	
3	0	0	0	0	510	509	0	0	38	1	
4	0	0	0	0	500	509	0	0	38	1	
5	0	0	0	0	497	510	0	0	38	1	
6	0	0	0	0	484	510	0	0	38	1	
7	0	0	0	0	475	509	0	0	39	1	
8	0	0	0	0	480	510	0	0	38	1	
9	0	0	0	0	497	507	0	0	38	1	
10	0	0	0	0	493	507	0	0	38	1	
11	0	0	0	0	504	507	0	0	38	1	
12	0	0	0	0	518	507	0	0	38	1	
13	0	0	0	0	511	507	0	0	38	1	
14	0	0	0	0	502	507	0	0	38	1	
15	0	0	0	0	527	507	0	0	39	1	
0	0	0	0	0	525	507	0	0	38	1	
1	0	0	0	0	510	509	0	0	38	1	
2	0	0	0	0	539	510	0	0	38	1	
3	0	0	0	0	535	511	0	0	38	1	
4	0	0	0	0	517	510	0	0	38	1	
5	0	0	0	0	511	510	0	0	38	1	
6	0	0	0	0	505	508	0	0	38	1	
7	0	0	0	0	521	508	0	0	39	1	
8	0	0	0	0	523	506	0	0	38	1	
9	0	0	0	0	500	506	0	0	38	1	
10	0	0	0	0	493	507	0	0	38	1	
11	0	0	0	0	505	507	0	0	38	1	
12	0	0	0	0	513	507	0	0	38	1	
13	0	0	0	0	516	505	0	0	38	1	
14	0	0	0	0	511	506	0	0	38	1	
15	0	0	0	0	517	507	0	0	39	1	
0	0	0	0	0	512	506	0	0	38	1	
1	0	0	0	0	487	507	0	0	38	1	
2	0	0	0	0	483	507	0	0	38	1	
3	0	0	0	0	494	509	0	0	38	1	
4	0	0	0	0	503	509	0	0	38	1	
5	0	0	0	0	501	508	0	0	38	1	
6	0	0	0	0	508	510	0	0	38	1	
7	0	0	0	0	510	510	0	0	39	1	
8	0	0	0	0	508	510	0	0	38	1	
9	0	0	0	0	511	511	0	0	38	1	
10	0	0	0	0	510	509	0	0	38	1	
11	0	0	0	0	518	508	0	0	38	1	
12	0	0	0	0	521	508	0	0	38	1	
13	0	0	0	0	510	510	0	0	38	1	
14	0	0	0	0	504	507	0	0	38	1	
15	0	0	0	0	508	507	0	0	39	1	
0	0	0	0	0	512	508	0	0	38	1	
1	0	0	0	0	505	507	0	0	38	1	
2	0	0	0	0	500	508	0	0	38	1	
3	0	0	0	0	511	506	0	815	38	1	
4	0	0	0	0	517	508	0	1018	38	1	
5	0	0	0	0	525	509	0	1018	38	1	
6	0	0	0	0	529	509	0	1018	38	1	
7	0	0	0	0	522	509	0	1018	39	1	
8	0	0	0	0	513	509	0	1018	38	1	
9	0	0	0	0	517	508	0	1018	38	1	
10	0	0	0	0	523	508	0	1018	38	1	
11	0	0	0	0	501	509	0	1018	38	1	
12	0	0	0	0	459	509	0	1018	38	1	
13	0	0	0	0	439	509	0	1018	38	1	
14	0	0	0	0	473	509	0	1018	38	1	
15	0	0	0	0	498	507	0	1018	39	1	
0	0	0	0	0	514	506	0	1018	38	1	
1	0	0	0	0	517	507	0	1018	38	1	
2	0	0	0	0	533	508	0	1018	38	1	
3	0	0	0	0	533	508	0	1018	38	1	
4	0	0	0	0	524	509	0	1018	38	1	
5	0	0	0	0	516	510	0	1018	38	1	
6	0	0	0	0	517	509	0	1018	38	1	
7	0	0	0	0	524	510	0	1018	39	1	
8	0	0	0	0	532	510	0	1018	38	1	
9	0	0	0	0	525	508	0	1018	38	1	
10	0	0	0	0	515	508	0	1018	38	1	
11	0	0	0	0	502	508	0	1018	38	1	
12	0	0	0	0	500	508	0	1018	38	1	
13	0	0	0	0	506	508	0	1018	38	1	
14	0	0	0	0	517	508	0	1018	38	1	
15	0	0	0	0	518	508	0	1018	39	1	
0	0	0	0	0	512	510	0	1018	38	1	
1	0	0	0	0	515	508	0	1018	38	1	
2	0	0	0	0	513	508	0	1018	38	1	
3	0	0	0	0	512	508	0	1018	38	1	
4	0	0	0	0	504	509	0	1018	38	1	
5	0	0	0	0	495	511	0	1018	38	1	
6	0	0	0	0	491	511	0	1018	38	1	
7	0	0	0	0	493	510	0	1018	39	1	
8	0	0	0	0	497	508	0	1018	38	1	
9	0	0	0	0	498	508	0	1018	38	1	
10	0	0	0	0	500	508	0	1018	38	1	
11	0	0	0	0	504	505	0	1018	38	1	
12	0	0	0	0	506	506	0	1018	38	1	
13	0	0	0	0	511	505	0	1018	38	1	
14	0	0	0	0	517	507	0	1018	38	1	
15	0	0	0	0	520	509	0	907	39	1	
0	0	0	0	0	520	509	0	704	38	1	
1	0	0	0	0	521	508	0	539	38	1	
2	0	0	0	0	514	508	0	405	38	1	
3	0	0	0	0	519	508	0	313	38	1	
4	0	0	0	0	511	509	0	165	38	1	
5	0	0	0	0	509	511	0	0	38	1	
6	0	0	0	0	514	511	0	0	38	1	
7	0	0	0	0	515	512	0	0	39	1	
8	0	0	0	0	493	512	0	0	38	1	
9	0	0	0	0	459	513	0	0	38	1	
10	0	0	0	0	420	511	0	0	38	1	
11	0	0	0	0	470	510	0	0	38	1	
12	0	0	0	0	532	510	0	0	38	1	
13	0	0	0	0	525	510	0	0	38	1	
14	0	0	0	0	534	511	0	0	38	1	
15	0	0	0	0	561	511	0	0	39	1	
0	0	0	0	0	545	508	0	0	38	1	
1	0	0	0	0	522	507	0	0	38	1	
2	0	0	0	0	520	506	0	0	38	1	
3	0	0	0	0	509	508	0	0	38	1	
4	0	0	0	0	499	508	0	0	38	1	
5	0	0	0	0	508	508	0	0	38	1	
6	0	0	0	0	507	510	0	0	38	1	
7	0	0	0	0	518	508	0	0	39	1	
8	0	0	0	0	527	509	0	0	38	1	
9	0	0	0	0	529	511	0	0	38	1	
10	0	0	0	0	519	510	0	0	38	1	
11	0	0	0	0	512	511	0	0	38	1	
12	0	0	0	0	496	509	0	0	38	1	
13	0	0	0	0	484	508	0	0	38	1	
14	0	0	0	0	490	508	0	0	38	1	
15	0	0	0	0	509	509	0	0	39	1	
0	0	0	0	0	522	507	0	0	38	1	
1	0	0	0	0	511	506	0	0	38	1	
2	0	0	0	0	493	508	0	0	38	1	
3	0	0	0	0	498	508	0	0	38	1	
4	0	0	0	0	510	507	0	0	38	1	
5	0	0	0	0	509	506	0	0	38	1	
6	0	0	0	0	505	507	0	0	38	1	
7	0	0	0	0	512	510	0	315	39	1	
8	0	0	0	0	522	512	0	519	38	1	
9	0	0	0	0	517	510	0	590	38	1	
10	0	0	0	0	518	514	0	542	38	1	
11	0	0	0	0	528	513	0	452	38	1	
12	0	0	0	0	521	513	0	326	38	1	
13	0	0	0	0	483	510	0	96	38	1	
14	0	0	0	0	448	510	0	0	38	1	
15	0	0	0	0	443	509	0	0	39	1	
0	0	0	0	0	441	509	0	0	38	1	
1	0	0	0	0	469	509	0	0	38	1	
2	0	0	0	0	531	507	0	0	38	1	
3	0	0	0	0	557	506	0	0	38	1	
4	0	0	0	0	558	507	0	0	38	1	
5	0	0	0	0	548	506	0	0	38	1	
6	0	0	0	0	537	508	0	0	38	1	
7	0	0	0	0	530	507	0	0	39	1	
8	0	0	0	0	522	507	0	44	38	1	
9	0	0	0	0	514	508	0	0	38	1	
10	0	0	0	0	498	509	0	0	38	1	
11	0	0	0	0	488	510	0	0	38	1	
12	0	0	0	0	492	511	0	0	38	1	
13	0	0	0	0	505	510	0	0	38	1	
14	0	0	0	0	503	509	0	0	38	1	
15	0	0	0	0	502	510	0	0	39	1	
0	0	0	0	0	505	510	0	0	38	1	
1	0	0	0	0	518	510	0	0	38	1	
2	0	0	0	0	519	509	0	0	38	1	
3	0	0	0	0	518	508	0	0	38	1	
4	0	0	0	0	512	508	0	0	38	1	
5	0	0	0	0	507	508	0	0	38	1	
6	0	0	0	0	500	506	0	0	38	1	
7	0	0	0	0	509	507	0	0	39	1	
8	0	0	0	0	512	508	0	0	38	1	
9	0	0	0	0	508	507	0	0	38	1	
10	0	0	0	0	505	508	0	0	38	1	
11	0	0	0	0	505	507	0	0	38	1	
12	0	0	0	0	500	508	0	0	38	1	
13	0	0	0	0	510	507	0	0	38	1	
14	0	0	0	0	520	507	0	0	38	1	
15	0	0	0	0	515	508	0	0	39	1	
0	0	0	0	0	511	508	0	0	38	1	
1	0	0	0	0	514	506	0	0	38	1	
2	0	0	0	0	508	507	0	0	38	1	
3	0	0	0	0	512	505	0	0	38	1	
4	0	0	0	0	510	504	0	0	38	1	
5	0	0	0	0	512	504	0	0	38	1	
6	0	0	0	0	514	504	0	0	38	1	
7	0	0	0	0	515	505	0	0	39	1	
8	0	0	0	0	520	506	0	0	38	1	
9	0	0	0	0	514	507	0	0	38	1	
10	0	0	0	0	506	507	0	0	38	1	
11	0	0	0	0	489	505	0	325	38	1	
12	0	0	0	0	488	507	0	492	38	1	
13	0	0	0	0	500	508	0	474	38	1	
14	0	0	0	0	507	508	0	235	38	1	
15	0	0	0	0	510	507	0	0	39	1	
0	0	0	0	0	505	506	0	0	38	1	
1	0	0	0	0	508	506	0	0	38	1	
2	0	0	0	0	518	507	0	0	38	1	
3	0	0	0	0	522	507	0	0	38	1	
4	0	0	0	0	529	506	0	0	38	1	
5	0	0	0	0	530	504	0	0	38	1	
6	0	0	0	0	531	504	0	0	38	1	
7	0	0	0	0	516	504	0	0	39	1	
8	0	0	0	0	503	504	0	0	38	1	
9	0	0	0	0	500	507	0	0	38	1	
10	0	0	0	0	504	508	0	0	38	1	
11	0	0	0	0	497	509	0	0	38	1	
12	0	0	0	0	478	510	0	0	38	1	
13	0	0	0	0	474	510	0	0	38	1	
14	0	0	0	0	497	508	0	0	38	1	
15	0	0	0	0	522	508	0	0	39	1	
0	0	0	0	0	537	510	0	0	38	1	
1	0	0	0	0	545	509	0	0	38	1	
2	0	0	0	0	536	509	0	0	38	1	
3	0	0	0	0	508	510	0	0	38	1	
4	0	0	0	0	463	509	0	0	38	1	
5	0	0	0	0	453	507	0	0	38	1	
6	0	0	0	0	452	505	0	0	38	1	
7	0	0	0	0	472	506	0	0	39	1	
8	0	0	0	0	509	504	0	0	38	1	
9	0	0	0	0	509	505	0	0	38	1	
10	0	0	0	0	496	506	0	0	38	1	
11	0	0	0	0	507	506	0	0	38	1	
12	0	0	0	0	520	506	0	480	38	1	
13	0	0	0	0	535	507	0	710	38	1	
14	0	0	0	0	550	508	0	742	38	1	
15	0	0	0	0	554	509	0	631	39	1	
0	0	0	0	0	540	508	0	444	38	1	
1	0	0	0	0	513	508	0	204	38	1	
2	0	0	0	0	507	508	0	68	38	1	
3	0	0	0	0	503	505	0	0	38	1	
4	0	0	0	0	528	507	0	0	38	1	
5	0	0	0	0	525	508	0	0	38	1	
6	0	0	0	0	516	508	0	0	38	1	
7	0	0	0	0	511	507	0	0	39	1	
8	0	0	0	0	501	508	0	0	38	1	
9	0	0	0	0	507	507	0	384	38	1	
10	0	0	0	0	506	508	0	757	38	1	
11	0	0	0	0	505	510	0	1001	38	1	
12	0	0	0	0	512	510	0	1017	38	1	
13	0	0	0	0	509	509	0	1018	38	1	
14	0	0	0	0	508	508	0	1018	38	1	
15	0	0	0	0	504	510	0	1017	39	1	
0	0	0	0	0	491	510	0	1017	38	1	
1	0	0	0	0	483	510	0	739	38	1	
2	0	0	0	0	492	510	0	410	38	1	
3	0	0	0	0	512	510	0	0	38	1	
4	0	0	0	0	504	509	0	0	38	1	
5	0	0	0	0	493	509	0	0	38	1	
6	0	0	0	0	497	507	0	0	38	1	
7	0	0	0	0	509	505	0	0	39	1	
8	0	0	0	0	523	505	0	0	38	1	
9	0	0	0	0	533	504	0	0	38	1	
10	0	0	0	0	524	505	0	0	38	1	
11	0	0	0	0	508	506	0	0	38	1	
12	0	0	0	0	507	506	0	0	38	1	
13	0	0	0	0	504	507	0	0	38	1	
14	0	0	0	0	504	507	0	0	38	1	
15	0	0	0	0	506	508	0	0	39	1	
0	0	0	0	0	510	508	0	0	38	1	
1	0	0	0	0	517	506	0	0	38	1	
2	0	0	0	0	513	505	0	0	38	1	
3	0	0	0	0	510	506	0	0	38	1	
4	0	0	0	0	515	506	0	0	38	1	
5	0	0	0	0	526	505	0	0	38	1	
6	0	0	0	0	524	506	0	0	38	1	
7	0	0	0	0	516	505	0	0	39	1	
8	0	0	0	0	509	506	0	0	38	1	
9	0	0	0	0	506	505	0	0	38	1	
10	0	0	0	0	506	505	0	0	38	1	
11	0	0	0	0	511	505	0	0	38	1	
12	0	0	0	0	519	506	0	0	38	1	
13	0	0	0	0	513	508	0	0	38	1	
14	0	0	0	0	510	510	0	0	38	1	
15	0	0	0	0	506	511	0	0	39	1	
0	0	0	0	0	504	511	0	0	38	1	
1	0	0	0	0	491	510	0	0	38	1	
2	0	0	0	0	489	509	0	0	38	1	
3	0	0	0	0	491	508	0	0	38	1	
4	0	0	0	0	489	508	0	0	38	1	
5	0	0	0	0	490	509	0	0	38	1	
6	0	0	0	0	493	507	0	0	38	1	
7	0	0	0	0	499	507	0	0	39	1	
8	0	0	0	0	518	508	0	0	38	1	
9	0	0	0	0	523	506	0	0	38	1	
10	0	0	0	0	512	505	0	0	38	1	
11	0	0	0	0	509	507	0	0	38	1	
12	0	0	0	0	510	507	0	0	38	1	
13	0	0	0	0	519	508	0	0	38	1	
14	0	0	0	0	517	509	0	325	38	1	
15	0	0	0	0	499	510	0	604	39	1	
0	0	0	0	0	512	508	0	705	38	1	
1	0	0	0	0	524	509	0	528	38	1	
2	0	0	0	0	531	509	0	271	38	1	
3	0	0	0	0	532	509	0	0	38	1	
4	0	0	0	0	533	510	0	0	38	1	
5	0	0	0	0	516	509	0	0	38	1	
6	0	0	0	0	522	508	0	0	38	1	
7	0	0	0	0	523	510	0	0	39	1	
8	0	0	0	0	511	509	0	0	38	1	
9	0	0	0	0	513	507	0	0	38	1	
10	0	0	0	0	515	505	0	0	38	1	
11	0	0	0	0	507	505	0	0	38	1	
12	0	0	0	0	488	505	0	663	38	1	
13	0	0	0	0	480	505	0	1018	38	1	
14	0	0	0	0	477	506	0	1018	38	1	
15	0	0	0	0	493	507	0	1018	39	1	
0	0	0	0	0	504	506	0	1018	38	1	
1	0	0	0	0	505	506	0	1018	38	1	
2	0	0	0	0	503	507	0	1018	38	1	
3	0	0	0	0	511	505	0	1018	38	1	
4	0	0	0	0	507	505	0	1018	38	1	
5	0	0	0	0	506	507	0	1018	38	1	
6	0	0	0	0	497	508	0	1018	38	1	
7	0	0	0	0	505	505	0	1018	39	1	
8	0	0	0	0	512	505	0	1018	38	1	
9	0	0	0	0	513	507	0	1018	38	1	
10	0	0	0	0	519	506	0	1018	38	1	
11	0	0	0	0	516	504	0	1018	38	1	
12	0	0	0	0	510	504	0	1018	38	1	
13	0	0	0	0	515	505	0	1018	38	1	
14	0	0	0	0	513	506	0	1018	38	1	
15	0	0	0	0	518	507	0	1018	39	1	
0	0	0	0	0	524	509	0	1018	38	1	
1	0	0	0	0	524	509	0	1018	38	1	
2	0	0	0	0	514	508	0	1017	38	1	
3	0	0	0	0	513	508	0	307	38	1	
4	0	0	0	0	514	506	0	0	38	1	
5	0	0	0	0	501	507	0	0	38	1	
6	0	0	0	0	516	507	0	0	38	1	
7	0	0	0	0	529	508	0	0	39	1	
8	0	0	0	0	516	508	0	0	38	1	
9	0	0	0	0	480	507	0	0	38	1	
10	0	0	0	0	480	505	0	0	38	1	
11	0	0	0	0	501	504	0	0	38	1	
12	0	0	0	0	496	503	0	0	38	1	
13	0	0	0	0	497	504	0	0	38	1	
14	0	0	0	0	501	504	0	0	38	1	
15	0	0	0	0	494	507	0	0	39	1	
0	0	0	0	0	512	507	0	0	38	1	
1	0	0	0	0	515	507	0	0	38	1	
2	0	0	0	0	506	508	0	0	38	1	
3	0	0	0	0	506	508	0	0	38	1	
4	0	0	0	0	505	509	0	0	38	1	
5	0	0	0	0	519	509	0	0	38	1	
6	0	0	0	0	514	508	0	0	38	1	
7	0	0	0	0	517	509	0	0	39	1	
8	0	0	0	0	518	507	0	0	38	1	
9	0	0	0	0	525	508	0	0	38	1	
10	0	0	0	0	520	509	0	0	38	1	
11	0	0	0	0	527	508	0	0	38	1	
12	0	0	0	0	528	508	0	0	38	1	
13	0	0	0	0	511	508	0	0	38	1	
14	0	0	0	0	501	507	0	0	38	1	
15	0	0	0	0	499	508	0	0	39	1	
0	0	0	0	0	496	505	0	0	38	1	
1	0	0	0	0	488	506	0	0	38	1	
2	0	0	0	0	485	506	0	0	38	1	
3	0	0	0	0	486	507	0	0	38	1	
4	0	0	0	0	500	508	0	0	38	1	
5	0	0	0	0	497	507	0	0	38	1	
6	0	0	0	0	500	507	0	0	38	1	
7	0	0	0	0	520	507	0	0	39	1	
8	0	0	0	0	524	507	0	0	38	1	
9	0	0	0	0	520	506	0	0	38	1	
10	0	0	0	0	513	504	0	0	38	1	
11	0	0	0	0	519	504	0	0	38	1	
12	0	0	0	0	517	505	0	0	38	1	
13	0	0	0	0	514	504	0	0	38	1	
14	0	0	0	0	520	505	0	0	38	1	
15	0	0	0	0	527	508	0	0	39	1	
0	0	0	0	0	522	508	0	0	38	1	
1	0	0	0	0	523	508	0	0	38	1	
2	0	0	0	0	517	509	0	0	38	1	
3	0	0	0	0	499	509	0	97	38	1	
4	0	0	0	0	496	507	0	146	38	1	
5	0	0	0	0	503	508	0	51	38	1	
6	0	0	0	0	505	508	0	0	38	1	
7	0	0	0	0	502	505	0	0	39	1	
8	0	0	0	0	497	505	0	0	38	1	
9	0	0	0	0	482	505	0	0	38	1	
10	0	0	0	0	486	507	0	0	38	1	
11	0	0	0	0	506	508	0	0	38	1	
12	0	0	0	0	513	507	0	423	38	1	
13	0	0	0	0	518	507	0	1011	38	1	
14	0	0	0	0	515	505	0	1018	38	1	
15	0	0	0	0	504	504	0	1018	39	1	
0	0	0	0	0	503	505	0	1018	38	1	
1	0	0	0	0	510	505	0	1018	38	1	
2	0	0	0	0	514	505	0	1018	38	1	
3	0	0	0	0	512	506	0	1018	38	1	
4	0	0	0	0	524	509	0	1018	38	1	
5	0	0	0	0	511	509	0	1018	38	1	
6	0	0	0	0	510	510	0	1018	38	1	
7	0	0	0	0	528	510	0	1018	39	1	
8	0	0	0	0	530	511	0	1018	38	1	
9	0	0	0	0	520	510	0	1018	38	1	
10	0	0	0	0	515	509	0	1017	38	1	
11	0	0	0	0	516	507	0	1018	38	1	
12	0	0	0	0	503	507	0	1018	38	1	
13	0	0	0	0	511	507	0	1018	38	1	
14	0	0	0	0	522	508	0	1018	38	1	
15	0	0	0	0	506	507	0	1018	39	1	
0	0	0	0	0	496	508	0	1018	38	1	
1	0	0	0	0	500	508	0	1018	38	1	
2	0	0	0	0	495	508	0	1018	38	1	
3	0	0	0	0	492	507	0	1018	38	1	
4	0	0	0	0	492	509	0	1018	38	1	
5	0	0	0	0	502	509	0	1018	38	1	
6	0	0	0	0	505	509	0	1018	38	1	
7	0	0	0	0	514	510	0	1018	39	1	
8	0	0	0	0	513	510	0	1018	38	1	
9	0	0	0	0	504	508	0	1018	38	1	
10	0	0	0	0	496	508	0	1018	38	1	
11	0	0	0	0	502	507	0	1018	38	1	
12	0	0	0	0	517	506	0	1018	38	1	
13	0	0	0	0	512	505	0	1018	38	1	
14	0	0	0	0	511	504	0	1018	38	1	
15	0	0	0	0	515	504	0	1018	39	1	
0	0	0	0	0	506	505	0	1018	38	1	
1	0	0	0	0	510	507	0	1018	38	1	
2	0	0	0	0	516	508	0	1018	38	1	
3	0	0	0	0	518	508	0	1018	38	1	
4	0	0	0	0	520	509	0	1018	38	1	
5	0	0	0	0	524	509	0	1018	38	1	
6	0	0	0	0	523	510	0	1018	38	1	
7	0	0	0	0	523	509	0	1018	39	1	
8	0	0	0	0	517	512	0	1018	38	1	
9	0	0	0	0	498	513	0	1018	38	1	
10	0	0	0	0	492	512	0	816	38	1	
11	0	0	0	0	500	510	0	624	38	1	
12	0	0	0	0	509	507	0	464	38	1	
13	0	0	0	0	529	506	0	399	38	1	
14	0	0	0	0	521	506	0	382	38	1	
15	0	0	0	0	519	505	0	453	39	1	
0	0	0	0	0	522	506	0	705	38	1	
1	0	0	0	0	513	505	0	1004	38	1	
2	0	0	0	0	486	509	0	1018	38	1	
3	0	0	0	0	480	511	0	1018	38	1	
4	0	0	0	0	483	511	0	1018	38	1	
5	0	0	0	0	478	512	0	1018	38	1	
6	0	0	0	0	480	512	0	1018	38	1	
7	0	0	0	0	495	512	0	1018	39	1	
8	0	0	0	0	504	511	0	1018	38	1	
9	0	0	0	0	508	511	0	1018	38	1	
10	0	0	0	0	513	509	0	1018	38	1	
11	0	0	0	0	516	510	0	1018	38	1	
12	0	0	0	0	516	508	0	1018	38	1	
13	0	0	0	0	521	509	0	1018	38	1	
14	0	0	0	0	530	508	0	1018	38	1	
15	0	0	0	0	520	508	0	1018	39	1	
0	0	0	0	0	517	506	0	1018	38	1	
1	0	0	0	0	517	508	0	1018	38	1	
2	0	0	0	0	508	509	0	1018	38	1	
3	0	0	0	0	503	511	0	1018	38	1	
4	0	0	0	0	503	512	0	1018	38	1	
5	0	0	0	0	504	512	0	1018	38	1	
6	0	0	0	0	531	512	0	1018	38	1	
7	0	0	0	0	532	512	0	1018	39	1	
8	0	0	0	0	511	510	0	1018	38	1	
9	0	0	0	0	521	511	0	1018	38	1	
10	0	0	0	0	534	512	0	1018	38	1	
11	0	0	0	0	521	513	0	1018	38	1	
12	0	0	0	0	511	512	0	1018	38	1	
13	0	0	0	0	513	511	0	1018	38	1	
14	0	0	0	0	506	511	0	1018	38	1	
15	0	0	0	0	482	509	0	1018	39	1	
0	0	0	0	0	478	509	0	1018	38	1	
1	0	0	0	0	504	508	0	1018	38	1	
2	0	0	0	0	511	508	0	1018	38	1	
3	0	0	0	0	491	507	0	1018	38	1	
4	0	0	0	0	501	508	0	1018	38	1	
5	0	0	0	0	502	509	0	1018	38	1	
6	0	0	0	0	512	510	0	1018	38	1	
7	0	0	0	0	526	510	0	1018	39	1	
8	0	0	0	0	527	511	0	1018	38	1	
9	0	0	0	0	521	511	0	1018	38	1	
10	0	0	0	0	511	511	0	1018	38	1	
11	0	0	0	0	492	510	0	1018	38	1	
12	0	0	0	0	482	509	0	1018	38	1	
13	0	0	0	0	484	508	0	1018	38	1	
14	0	0	0	0	500	507	0	1018	38	1	
15	0	0	0	0	524	508	0	1018	39	1	
0	0	0	0	0	525	507	0	1018	38	1	
1	0	0	0	0	521	505	0	1018	38	1	
2	0	0	0	0	517	504	0	1018	38	1	
3	0	0	0	0	510	504	0	1018	38	1	
4	0	0	0	0	531	505	0	1018	38	1	
5	0	0	0	0	542	506	0	1018	38	1	
6	0	0	0	0	520	507	0	1018	38	1	
7	0	0	0	0	478	507	0	1018	39	1	
8	0	0	0	0	492	507	0	1018	38	1	
9	0	0	0	0	515	508	0	1018	38	1	
10	0	0	0	0	512	509	0	1018	38	1	
11	0	0	0	0	499	510	0	1018	38	1	
12	0	0	0	0	492	510	0	1018	38	1	
13	0	0	0	0	501	510	0	1018	38	1	
14	0	0	0	0	521	507	0	1018	38	1	
15	0	0	0	0	531	507	0	1018	39	1	
0	0	0	0	0	536	506	0	1018	38	1	
1	0	0	0	0	534	505	0	1018	38	1	
2	0	0	0	0	517	506	0	1018	38	1	
3	0	0	0	0	472	504	0	1018	38	1	
4	0	0	0	0	452	506	0	891	38	1	
5	0	0	0	0	478	507	0	569	38	1	
6	0	0	0	0	508	509	0	241	38	1	
7	0	0	0	0	522	511	0	0	39	1	
8	0	0	0	0	515	512	0	0	38	1	
9	0	0	0	0	509	509	0	0	38	1	
10	0	0	0	0	504	508	0	0	38	1	
11	0	0	0	0	499	508	0	0	38	1	
12	0	0	0	0	491	506	0	0	38	1	
13	0	0	0	0	496	508	0	0	38	1	
14	0	0	0	0	508	507	0	0	38	1	
15	0	0	0	0	521	505	0	0	39	1	
0	0	0	0	0	527	504	0	0	38	1	
1	0	0	0	0	534	505	0	0	38	1	
2	0	0	0	0	539	505	0	0	38	1	
3	0	0	0	0	515	507	0	0	38	1	
4	0	0	0	0	502	507	0	0	38	1	
5	0	0	0	0	511	507	0	0	38	1	
6	0	0	0	0	521	507	0	0	38	1	
7	0	0	0	0	524	508	0	0	39	1	
8	0	0	0	0	524	510	0	0	38	1	
9	0	0	0	0	517	510	0	0	38	1	
10	0	0	0	0	509	507	0	0	38	1	
11	0	0	0	0	479	509	0	0	38	1	
12	0	0	0	0	458	509	0	0	38	1	
13	0	0	0	0	470	508	0	0	38	1	
14	0	0	0	0	492	507	0	0	38	1	
15	0	0	0	0	514	505	0	0	39	1	
0	0	0	0	0	516	506	0	0	38	1	
1	0	0	0	0	500	506	0	0	38	1	
2	0	0	0	0	533	508	0	0	38	1	
3	0	0	0	0	544	508	0	0	38	1	
4	0	0	0	0	523	507	0	0	38	1	
5	0	0	0	0	513	507	0	0	38	1	
6	0	0	0	0	506	509	0	316	38	1	
7	0	0	0	0	511	511	0	704	39	1	
8	0	0	0	0	511	511	0	1017	38	1	
9	0	0	0	0	503	512	0	1018	38	1	
10	0	0	0	0	502	512	0	1018	38	1	
11	0	0	0	0	515	511	0	1018	38	1	
12	0	0	0	0	520	510	0	1018	38	1	
13	0	0	0	0	523	509	0	1018	38	1	
14	0	0	0	0	520	509	0	1017	38	1	
15	0	0	0	0	499	508	0	1018	39	1	
0	0	0	0	0	482	508	0	1017	38	1	
1	0	0	0	0	478	508	0	1018	38	1	
2	0	0	0	0	500	508	0	1018	38	1	
3	0	0	0	0	530	507	0	1018	38	1	
4	0	0	0	0	527	505	0	1018	38	1	
5	0	0	0	0	529	505	0	1018	38	1	
6	0	0	0	0	533	505	0	1018	38	1	
7	0	0	0	0	507	507	0	1018	39	1	
8	0	0	0	0	473	507	0	1018	38	1	
9	0	0	0	0	468	508	0	1018	38	1	
10	0	0	0	0	504	510	0	1018	38	1	
11	0	0	0	0	537	511	0	1018	38	1	
12	0	0	0	0	535	510	0	1018	38	1	
13	0	0	0	0	527	508	0	1018	38	1	
14	0	0	0	0	535	509	0	1018	38	1	
15	0	0	0	0	526	509	0	1018	39	1	
0	0	0	0	0	524	509	0	1018	38	1	
1	0	0	0	0	514	508	0	1018	38	1	
2	0	0	0	0	511	506	0	1018	38	1	
3	0	0	0	0	496	505	0	1018	38	1	
4	0	0	0	0	469	505	0	1018	38	1	
5	0	0	0	0	464	504	0	1018	38	1	
6	0	0	0	0	487	505	0	1018	38	1	
7	0	0	0	0	499	505	0	1018	39	1	
8	0	0	0	0	515	506	0	1018	38	1	
9	0	0	0	0	521	507	0	1018	38	1	
10	0	0	0	0	507	508	0	1018	38	1	
11	0	0	0	0	513	510	0	1018	38	1	
12	0	0	0	0	515	508	0	1018	38	1	
13	0	0	0	0	515	509	0	1018	38	1	
14	0	0	0	0	516	510	0	1018	38	1	
15	0	0	0	0	516	511	0	1018	39	1	
0	0	0	0	0	513	511	0	1018	38	1	
1	0	0	0	0	513	511	0	1018	38	1	
2	0	0	0	0	502	509	0	1018	38	1	
3	0	0	0	0	504	509	0	1018	38	1	
4	0	0	0	0	510	509	0	1018	38	1	
5	0	0	0	0	504	508	0	1018	38	1	
6	0	0	0	0	493	509	0	1018	38	1	
7	0	0	0	0	494	511	0	1018	39	1	
8	0	0	0	0	514	511	0	1018	38	1	
9	0	0	0	0	531	512	0	1018	38	1	
10	0	0	0	0	527	511	0	1018	38	1	
11	0	0	0	0	516	511	0	1018	38	1	
12	0	0	0	0	505	509	0	1018	38	1	
13	0	0	0	0	510	510	0	1018	38	1	
14	0	0	0	0	508	507	0	1018	38	1	
15	0	0	0	0	505	508	0	1018	39	1	
0	0	0	0	0	501	509	0	1018	38	1	
1	0	0	0	0	503	509	0	1017	38	1	
2	0	0	0	0	502	508	0	382	38	0	
3	0	0	0	0	508	509	0	0	38	1	
4	0	0	0	0	510	507	0	0	38	1	
5	0	0	0	0	505	504	0	0	38	1	
6	0	0	0	0	504	502	0	0	38	1	
7	0	0	0	0	504	503	0	0	39	1	
8	0	0	0	0	501	504	0	0	38	1	
9	0	0	0	0	507	505	0	0	38	1	
10	0	0	0	0	512	507	0	0	38	1	
11	0	0	0	0	517	508	0	0	38	1	
12	0	0	0	0	530	508	0	0	38	1	
13	0	0	0	0	520	509	0	0	38	1	
14	0	0	0	0	483	509	0	0	38	1	
15	0	0	0	0	483	509	0	0	39	1	
0	0	0	0	0	509	508	0	0	38	1	
1	0	0	0	0	504	509	0	0	38	1	
2	0	0	0	0	532	508	0	0	38	1	
3	0	0	0	0	542	508	0	0	38	1	
4	0	0	0	0	531	509	0	0	38	1	
5	0	0	0	0	522	508	0	0	38	1	
6	0	0	0	0	519	509	0	0	38	1	
7	0	0	0	0	508	510	0	0	39	1	
8	0	0	0	0	515	509	0	0	38	1	
9	0	0	0	0	517	510	0	0	38	1	
10	0	0	0	0	511	512	0	0	38	1	
11	0	0	0	0	502	511	0	0	38	1	
12	0	0	0	0	485	512	0	0	38	1	
13	0	0	0	0	485	511	0	0	38	1	
14	0	0	0	0	491	509	0	0	38	1	
15	0	0	0	0	511	509	0	0	39	1	
0	0	0	0	0	520	509	0	0	38	1	
1	0	0	0	0	499	508	0	0	38	1	
2	0	0	0	0	483	509	0	0	38	1	
3	0	0	0	0	491	509	0	0	38	1	
4	0	0	0	0	500	507	0	0	38	1	
5	0	0	0	0	519	505	0	0	38	1	
6	0	0	0	0	519	505	0	0	38	1	
7	0	0	0	0	515	505	0	0	39	1	
8	0	0	0	0	507	506	0	0	38	1	
9	0	0	0	0	526	506	0	0	38	1	
10	0	0	0	0	531	507	0	0	38	1	
11	0	0	0	0	517	508	0	0	38	1	
12	0	0	0	0	508	508	0	0	38	1	
13	0	0	0	0	513	511	0	0	38	1	
14	0	0	0	0	519	510	0	0	38	1	
15	0	0	0	0	515	510	0	0	39	1	
0	0	0	0	0	506	510	0	0	38	1	
1	0	0	0	0	515	508	0	0	38	1	
2	0	0	0	0	515	508	0	0	38	1	
3	0	0	0	0	513	507	0	0	38	1	
4	0	0	0	0	511	506	0	0	38	1	
5	0	0	0	0	496	504	0	0	38	1	
6	0	0	0	0	502	505	0	0	38	1	
7	0	0	0	0	507	506	0	0	39	1	
8	0	0	0	0	508	507	0	0	38	1	
9	0	0	0	0	500	507	0	0	38	1	
10	0	0	0	0	493	505	0	0	38	1	
11	0	0	0	0	507	505	0	0	38	1	
12	0	0	0	0	511	507	0	0	38	1	
13	0	0	0	0	518	508	0	0	38	1	
14	0	0	0	0	523	508	0	0	38	1	
15	0	0	0	0	514	509	0	0	39	1	
0	0	0	0	0	511	508	0	0	38	1	
1	0	0	0	0	508	509	0	0	38	1	
2	0	0	0	0	499	508	0	0	38	1	
3	0	0	0	0	481	509	0	0	38	1	
4	0	0	0	0	465	509	0	0	38	1	
5	0	0	0	0	490	509	0	0	38	1	
6	0	0	0	0	511	507	0	0	38	1	
7	0	0	0	0	516	507	0	0	39	1	
8	0	0	0	0	525	505	0	0	38	1	
9	0	0	0	0	517	505	0	0	38	1	
10	0	0	0	0	507	507	0	0	38	1	
11	0	0	0	0	499	508	0	0	38	1	
12	0	0	0	0	496	509	0	0	38	1	
13	0	0	0	0	491	509	0	0	38	1	
14	0	0	0	0	513	511	0	0	38	1	
15	0	0	0	0	526	511	0	0	39	1	
0	0	0	0	0	507	510	0	0	38	1	
1	0	0	0	0	501	511	0	0	38	1	
2	0	0	0	0	519	510	0	0	38	1	
3	0	0	0	0	515	509	0	0	38	1	
4	0	0	0	0	502	509	0	0	38	1	
5	0	0	0	0	503	508	0	0	38	1	
6	0	0	0	0	509	508	0	0	38	1	
7	0	0	0	0	502	508	0	0	39	1	
8	0	0	0	0	499	508	0	0	38	1	
9	0	0	0	0	530	507	0	0	38	1	
10	0	0	0	0	551	504	0	0	38	1	
11	0	0	0	0	530	504	0	0	38	1	
12	0	0	0	0	515	505	0	0	38	1	
13	0	0	0	0	499	507	0	0	38	1	
14	0	0	0	0	491	507	0	0	38	1	
15	0	0	0	0	487	509	0	0	39	1	
0	0	0	0	0	491	509	0	0	38	1	
1	0	0	0	0	504	509	0	0	38	1	
2	0	0	0	0	526	510	0	0	38	1	
3	0	0	0	0	530	508	0	0	38	1	
4	0	0	0	0	522	508	0	0	38	1	
5	0	0	0	0	511	508	0	0	38	1	
6	0	0	0	0	522	508	0	0	38	1	
7	0	0	0	0	534	508	0	0	39	1	
8	0	0	0	0	537	508	0	0	38	1	
9	0	0	0	0	531	507	0	0	38	1	
10	0	0	0	0	525	507	0	0	38	1	
11	0	0	0	0	524	507	0	396	38	1	
12	0	0	0	0	513	507	0	951	38	1	
13	0	0	0	0	490	508	0	1018	38	1	
14	0	0	0	0	496	509	0	1018	38	1	
15	0	0	0	0	508	510	0	1018	39	1	
0	0	0	0	0	504	510	0	1018	38	1	
1	0	0	0	0	504	509	0	1018	38	1	
2	0	0	0	0	502	510	0	1018	38	1	
3	0	0	0	0	496	507	0	1018	38	1	
4	0	0	0	0	504	508	0	1018	38	1	
5	0	0	0	0	515	507	0	1018	38	1	
6	0	0	0	0	501	507	0	1018	38	1	
7	0	0	0	0	497	507	0	1018	39	1	
8	0	0	0	0	508	506	0	1018	38	1	
9	0	0	0	0	509	506	0	1017	38	1	
10	0	0	0	0	504	505	0	1017	38	1	
11	0	0	0	0	508	505	0	1018	38	1	
12	0	0	0	0	506	505	0	1018	38	1	
13	0	0	0	0	515	505	0	1018	38	1	
14	0	0	0	0	524	506	0	1018	38	1	
15	0	0	0	0	517	508	0	1018	39	1	
0	0	0	0	0	502	508	0	1018	38	1	
1	0	0	0	0	510	510	0	1018	38	1	
2	0	0	0	0	494	509	0	1018	38	1	
3	0	0	0	0	465	508	0	1018	38	1	
4	0	0	0	0	463	507	0	1018	38	1	
5	0	0	0	0	500	507	0	1017	38	1	
6	0	0	0	0	508	506	0	1017	38	1	
7	0	0	0	0	511	507	0	1017	39	1	
8	0	0	0	0	518	507	0	829	38	1	
9	0	0	0	0	520	508	0	664	38	1	
10	0	0	0	0	510	508	0	507	38	1	
11	0	0	0	0	501	507	0	401	38	1	
12	0	0	0	0	511	505	0	323	38	1	
13	0	0	0	0	513	505	0	174	38	1	
14	0	0	0	0	513	507	0	15	38	1	
15	0	0	0	0	520	508	0	0	39	1	
0	0	0	0	0	507	508	0	0	38	1	
1	0	0	0	0	499	509	0	0	38	1	
2	0	0	0	0	508	509	0	0	38	1	
3	0	0	0	0	536	511	0	0	38	1	
4	0	0	0	0	548	512	0	0	38	1	
5	0	0	0	0	528	511	0	0	38	1	
6	0	0	0	0	519	507	0	0	38	1	
7	0	0	0	0	497	505	0	0	39	1	
8	0	0	0	0	493	505	0	0	38	1	
9	0	0	0	0	491	505	0	0	38	1	
10	0	0	0	0	499	505	0	0	38	1	
11	0	0	0	0	521	505	0	0	38	1	
12	0	0	0	0	506	507	0	0	38	1	
13	0	0	0	0	488	506	0	0	38	1	
14	0	0	0	0	474	507	0	0	38	1	
15	0	0	0	0	501	505	0	0	39	1	
0	0	0	0	0	520	505	0	0	38	1	
1	0	0	0	0	522	508	0	533	38	1	
2	0	0	0	0	521	508	0	1014	38	1	
3	0	0	0	0	510	508	0	1018	38	1	
4	0	0	0	0	505	508	0	1018	38	1	
5	0	0	0	0	498	509	0	1018	38	1	
6	0	0	0	0	494	509	0	1018	38	1	
7	0	0	0	0	499	510	0	1018	39	1	
8	0	0	0	0	508	510	0	1018	38	1	
9	0	0	0	0	508	509	0	1018	38	1	
10	0	0	0	0	512	508	0	1018	38	1	
11	0	0	0	0	509	505	0	1018	38	1	
12	0	0	0	0	515	504	0	1018	38	1	
13	0	0	0	0	515	502	0	1018	38	1	
14	0	0	0	0	524	502	0	1018	38	1	
15	0	0	0	0	517	504	0	1018	39	1	
0	0	0	0	0	515	504	0	1018	38	1	
1	0	0	0	0	512	506	0	1018	38	1	
2	0	0	0	0	509	509	0	1018	38	1	
3	0	0	0	0	520	510	0	1018	38	1	
4	0	0	0	0	530	511	0	1018	38	1	
5	0	0	0	0	541	510	0	1018	38	1	
6	0	0	0	0	539	509	0	1018	38	1	
7	0	0	0	0	522	510	0	1018	39	1	
8	0	0	0	0	503	511	0	1018	38	1	
9	0	0	0	0	489	508	0	1018	38	1	
10	0	0	0	0	484	509	0	1018	38	1	
11	0	0	0	0	501	509	0	1018	38	1	
12	0	0	0	0	512	508	0	1018	38	1	
13	0	0	0	0	508	508	0	1018	38	1	
14	0	0	0	0	504	507	0	1018	38	1	
15	0	0	0	0	502	506	0	1018	39	1	
0	0	0	0	0	500	508	0	1018	38	1	
1	0	0	0	0	496	509	0	1018	38	1	
2	0	0	0	0	498	508	0	1018	38	1	
3	0	0	0	0	503	507	0	1018	38	1	
4	0	0	0	0	493	508	0	1018	38	1	
5	0	0	0	0	491	509	0	1018	38	1	
6	0	0	0	0	498	509	0	1018	38	1	
7	0	0	0	0	523	508	0	1018	39	1	
8	0	0	0	0	563	507	0	1018	38	1	
9	0	0	0	0	554	507	0	1018	38	1	
10	0	0	0	0	540	506	0	1018	38	1	
11	0	0	0	0	539	508	0	1018	38	1	
12	0	0	0	0	526	507	0	1018	38	1	
13	0	0	0	0	507	507	0	1018	38	1	
14	0	0	0	0	467	507	0	1018	38	1	
15	0	0	0	0	463	505	0	1018	39	1	
0	0	0	0	0	501	504	0	1018	38	1	
1	0	0	0	0	502	507	0	1018	38	1	
2	0	0	0	0	476	509	0	1018	38	1	
3	0	0	0	0	487	508	0	1018	38	1	
4	0	0	0	0	515	508	0	1018	38	1	
5	0	0	0	0	518	509	0	1018	38	1	
6	0	0	0	0	508	508	0	1018	38	1	
7	0	0	0	0	487	507	0	1018	39	1	
8	0	0	0	0	485	507	0	1018	38	1	
9	0	0	0	0	511	508	0	1018	38	1	
10	0	0	0	0	538	508	0	1018	38	1	
11	0	0	0	0	530	508	0	1018	38	1	
12	0	0	0	0	507	507	0	1018	38	1	
13	0	0	0	0	519	507	0	1018	38	1	
14	0	0	0	0	537	505	0	1018	38	1	
15	0	0	0	0	545	505	0	1018	39	1	
0	0	0	0	0	542	504	0	1018	38	1	
1	0	0	0	0	519	504	0	1018	38	1	
2	0	0	0	0	496	505	0	1018	38	1	
3	0	0	0	0	472	506	0	1018	38	1	
4	0	0	0	0	462	507	0	1018	38	1	
