# OpenSignals Text File Format. Version 1
# {"98:D3:61:FD:78:31": {"position": 0, "device": "bitalino_rev", "device name": "98:D3:61:FD:78:31", "device connection": "BTH98:D3:61:FD:78:31", "sampling rate": 1000, "resolution": [4, 1, 1, 1, 1, 10, 10, 10, 10, 6, 6], "firmware version": 1282, "comments": "", "keywords": "", "mode": 0, "sync interval": 2, "date": "2024-4-12", "time": "10:32:19.177", "channels": [1, 2, 3, 4, 5, 6], "sensor": ["RAW", "RAW", "RAW", "RAW", "RAW", "RAW"], "label": ["A1", "A2", "A3", "A4", "A5", "A6"], "column": ["nSeq", "I1", "I2", "O1", "O2", "A1", "A2", "A3", "A4", "A5", "A6"], "special": [{}, {}, {}, {}, {}, {}], "digital IO": [0, 0, 1, 1], "convertedValues": 0}}
# EndOfHeader
0	0	0	0	0	494	507	0	316	38	1	
1	0	0	0	0	499	509	0	524	38	1	
2	0	0	0	0	500	510	0	736	38	1	
3	0	0	0	0	501	509	0	905	38	1	
4	0	0	0	0	516	508	0	1014	38	1	
5	0	0	0	0	522	507	0	1018	38	1	
6	0	0	0	0	516	505	0	1018	38	1	
7	0	0	0	0	512	507	0	1018	38	1	
8	0	0	0	0	511	506	0	1018	38	1	
9	0	0	0	0	513	508	0	1018	38	1	
10	0	0	0	0	512	506	0	1018	38	1	
11	0	0	0	0	526	505	0	1018	38	1	
12	0	0	0	0	525	507	0	1018	38	1	
13	0	0	0	0	511	506	0	1018	38	1	
14	0	0	0	0	502	508	0	1018	38	1	
15	0	0	0	0	496	508	0	1018	38	1	
0	0	0	0	0	502	510	0	1018	38	1	
1	0	0	0	0	505	510	0	1018	38	1	
2	0	0	0	0	508	509	0	1018	38	1	
3	0	0	0	0	503	509	0	1018	38	1	
4	0	0	0	0	501	510	0	1018	38	1	
5	0	0	0	0	510	509	0	1018	38	1	
6	0	0	0	0	502	507	0	1018	38	1	
7	0	0	0	0	494	507	0	1018	38	1	
8	0	0	0	0	492	506	0	819	38	1	
9	0	0	0	0	499	504	0	251	38	1	
10	0	0	0	0	490	504	0	0	38	1	
11	0	0	0	0	495	506	0	0	38	1	
12	0	0	0	0	512	504	0	0	38	1	
13	0	0	0	0	529	506	0	0	38	1	
14	0	0	0	0	544	505	0	0	38	1	
15	0	0	0	0	542	506	0	0	38	1	
0	0	0	0	0	524	510	0	0	38	1	
1	0	0	0	0	516	511	0	0	38	1	
2	0	0	0	0	498	514	0	0	38	1	
3	0	0	0	0	487	513	0	0	38	1	
4	0	0	0	0	497	513	0	0	38	1	
5	0	0	0	0	500	513	0	0	38	1	
6	0	0	0	0	507	512	0	0	38	1	
7	0	0	0	0	495	513	0	0	38	1	
8	0	0	0	0	490	510	0	0	38	1	
9	0	0	0	0	507	508	0	0	38	1	
10	0	0	0	0	528	507	0	0	38	1	
11	0	0	0	0	532	507	0	0	38	1	
12	0	0	0	0	533	507	0	0	38	1	
13	0	0	0	0	526	506	0	0	38	1	
14	0	0	0	0	511	506	0	0	38	1	
15	0	0	0	0	505	505	0	0	38	1	
0	0	0	0	0	508	507	0	0	38	1	
1	0	0	0	0	519	509	0	214	38	1	
2	0	0	0	0	513	509	0	403	38	1	
3	0	0	0	0	507	510	0	449	38	1	
4	0	0	0	0	508	510	0	396	38	1	
5	0	0	0	0	490	508	0	263	38	1	
6	0	0	0	0	478	509	0	190	38	1	
7	0	0	0	0	492	507	0	307	38	1	
8	0	0	0	0	513	504	0	475	38	1	
9	0	0	0	0	502	504	0	556	38	1	
10	0	0	0	0	489	506	0	591	38	1	
11	0	0	0	0	511	509	0	645	38	1	
12	0	0	0	0	532	507	0	833	38	1	
13	0	0	0	0	538	508	0	1018	38	1	
14	0	0	0	0	532	510	0	1018	38	1	
15	0	0	0	0	532	510	0	1018	38	1	
0	0	0	0	0	505	510	0	1018	38	1	
1	0	0	0	0	476	511	0	1018	38	1	
2	0	0	0	0	454	512	0	1018	38	1	
3	0	0	0	0	449	512	0	1018	38	1	
4	0	0	0	0	481	512	0	1018	38	1	
5	0	0	0	0	517	512	0	1018	38	1	
6	0	0	0	0	526	511	0	1018	38	1	
7	0	0	0	0	524	510	0	1018	38	1	
8	0	0	0	0	528	509	0	1018	38	1	
9	0	0	0	0	526	510	0	1018	38	1	
10	0	0	0	0	515	511	0	1018	38	1	
11	0	0	0	0	506	510	0	1018	38	1	
12	0	0	0	0	505	509	0	1018	38	1	
13	0	0	0	0	519	508	0	1018	38	1	
14	0	0	0	0	530	507	0	1018	38	1	
15	0	0	0	0	528	507	0	1018	38	1	
0	0	0	0	0	524	507	0	1018	38	1	
1	0	0	0	0	511	507	0	1018	38	1	
2	0	0	0	0	492	508	0	1018	38	1	
3	0	0	0	0	489	509	0	1018	38	1	
4	0	0	0	0	505	511	0	1018	38	1	
5	0	0	0	0	522	511	0	1018	38	1	
6	0	0	0	0	519	511	0	1018	38	1	
7	0	0	0	0	512	512	0	1018	38	1	
8	0	0	0	0	505	511	0	1018	38	1	
9	0	0	0	0	512	512	0	804	38	1	
10	0	0	0	0	519	511	0	275	38	1	
11	0	0	0	0	517	511	0	0	38	1	
12	0	0	0	0	517	510	0	0	38	1	
13	0	0	0	0	512	508	0	0	38	1	
14	0	0	0	0	504	508	0	0	38	1	
15	0	0	0	0	504	507	0	0	38	1	
0	0	0	0	0	509	504	0	0	38	1	
1	0	0	0	0	511	506	0	0	38	1	
2	0	0	0	0	510	507	0	0	38	1	
3	0	0	0	0	503	508	0	0	38	1	
4	0	0	0	0	506	508	0	0	38	1	
5	0	0	0	0	509	508	0	0	38	1	
6	0	0	0	0	511	508	0	0	38	1	
7	0	0	0	0	510	509	0	0	38	1	
8	0	0	0	0	505	511	0	0	38	1	
9	0	0	0	0	502	510	0	0	38	1	
10	0	0	0	0	494	510	0	0	38	1	
11	0	0	0	0	503	509	0	0	38	1	
12	0	0	0	0	500	507	0	0	38	1	
13	0	0	0	0	502	507	0	0	38	1	
14	0	0	0	0	509	506	0	0	38	1	
15	0	0	0	0	524	505	0	0	38	1	
0	0	0	0	0	532	504	0	0	38	1	
1	0	0	0	0	528	504	0	0	38	1	
2	0	0	0	0	531	506	0	0	38	1	
3	0	0	0	0	530	504	0	0	38	1	
4	0	0	0	0	511	506	0	0	38	1	
5	0	0	0	0	485	508	0	0	38	1	
6	0	0	0	0	456	507	0	0	38	1	
7	0	0	0	0	464	507	0	0	38	1	
8	0	0	0	0	497	505	0	0	38	1	
9	0	0	0	0	511	507	0	0	38	1	
10	0	0	0	0	516	508	0	0	38	1	
11	0	0	0	0	525	508	0	0	38	1	
12	0	0	0	0	515	508	0	0	38	1	
13	0	0	0	0	505	507	0	0	38	1	
14	0	0	0	0	531	506	0	0	38	1	
15	0	0	0	0	536	506	0	0	38	1	
0	0	0	0	0	546	506	0	0	38	1	
1	0	0	0	0	548	507	0	0	38	1	
2	0	0	0	0	514	506	0	0	38	1	
3	0	0	0	0	475	508	0	206	38	1	
4	0	0	0	0	443	508	0	432	38	1	
5	0	0	0	0	446	508	0	716	38	1	
6	0	0	0	0	486	511	0	973	38	1	
7	0	0	0	0	505	512	0	1018	38	1	
8	0	0	0	0	514	511	0	1018	38	1	
9	0	0	0	0	502	510	0	1018	38	1	
10	0	0	0	0	497	508	0	1018	38	1	
11	0	0	0	0	497	509	0	1017	38	1	
12	0	0	0	0	505	510	0	1018	38	1	
13	0	0	0	0	518	509	0	1018	38	1	
14	0	0	0	0	529	508	0	1018	38	1	
15	0	0	0	0	531	509	0	1018	38	1	
0	0	0	0	0	535	507	0	1018	38	1	
1	0	0	0	0	539	504	0	1018	38	1	
2	0	0	0	0	546	504	0	1018	38	1	
3	0	0	0	0	551	505	0	1018	38	1	
4	0	0	0	0	545	508	0	1018	38	1	
5	0	0	0	0	526	510	0	1018	38	1	
6	0	0	0	0	522	508	0	1018	38	1	
7	0	0	0	0	510	506	0	1018	38	1	
8	0	0	0	0	476	507	0	1018	38	1	
9	0	0	0	0	448	508	0	1018	38	1	
10	0	0	0	0	458	508	0	1018	38	1	
11	0	0	0	0	489	508	0	1018	38	1	
12	0	0	0	0	501	507	0	1018	38	1	
13	0	0	0	0	497	508	0	1018	38	1	
14	0	0	0	0	502	508	0	1018	38	1	
15	0	0	0	0	513	509	0	1018	38	1	
0	0	0	0	0	512	506	0	1018	38	1	
1	0	0	0	0	511	506	0	1018	38	1	
2	0	0	0	0	516	503	0	1018	38	1	
3	0	0	0	0	519	504	0	1018	38	1	
4	0	0	0	0	509	504	0	1018	38	1	
5	0	0	0	0	504	504	0	1018	38	1	
6	0	0	0	0	512	507	0	1018	38	1	
7	0	0	0	0	521	511	0	1018	38	1	
8	0	0	0	0	510	510	0	1018	38	1	
9	0	0	0	0	501	510	0	1017	38	1	
10	0	0	0	0	499	509	0	524	38	1	
11	0	0	0	0	504	509	0	39	38	1	
12	0	0	0	0	516	508	0	0	38	1	
13	0	0	0	0	523	508	0	0	38	1	
14	0	0	0	0	527	508	0	0	38	1	
15	0	0	0	0	528	508	0	0	38	1	
0	0	0	0	0	523	508	0	0	38	1	
1	0	0	0	0	512	506	0	0	38	1	
2	0	0	0	0	494	505	0	0	38	1	
3	0	0	0	0	494	505	0	350	38	1	
4	0	0	0	0	492	504	0	811	38	1	
5	0	0	0	0	495	505	0	1018	38	1	
6	0	0	0	0	509	506	0	1018	38	1	
7	0	0	0	0	523	507	0	1018	38	1	
8	0	0	0	0	527	510	0	1018	38	1	
9	0	0	0	0	520	511	0	1018	38	1	
10	0	0	0	0	514	510	0	1018	38	1	
11	0	0	0	0	507	510	0	1018	38	1	
12	0	0	0	0	510	508	0	1018	38	1	
13	0	0	0	0	515	510	0	1017	38	1	
14	0	0	0	0	517	511	0	519	38	1	
15	0	0	0	0	514	511	0	206	38	1	
0	0	0	0	0	493	509	0	4	38	1	
1	0	0	0	0	484	508	0	0	38	1	
2	0	0	0	0	494	507	0	0	38	1	
3	0	0	0	0	504	505	0	99	38	1	
4	0	0	0	0	512	506	0	280	38	1	
5	0	0	0	0	507	505	0	443	38	1	
6	0	0	0	0	497	507	0	494	38	1	
7	0	0	0	0	502	505	0	515	38	1	
8	0	0	0	0	511	507	0	368	38	1	
9	0	0	0	0	510	506	0	135	38	1	
10	0	0	0	0	515	507	0	0	38	1	
11	0	0	0	0	500	507	0	0	38	1	
12	0	0	0	0	500	509	0	0	38	1	
13	0	0	0	0	508	509	0	0	38	1	
14	0	0	0	0	513	509	0	0	38	1	
15	0	0	0	0	524	508	0	0	38	1	
0	0	0	0	0	532	507	0	0	38	1	
1	0	0	0	0	528	507	0	0	38	1	
2	0	0	0	0	517	505	0	0	38	1	
3	0	0	0	0	516	505	0	0	38	1	
4	0	0	0	0	511	505	0	0	38	1	
5	0	0	0	0	512	504	0	0	38	1	
6	0	0	0	0	516	506	0	0	38	1	
7	0	0	0	0	530	507	0	0	38	1	
8	0	0	0	0	536	507	0	0	38	1	
9	0	0	0	0	518	510	0	0	38	1	
10	0	0	0	0	500	510	0	0	38	1	
11	0	0	0	0	461	512	0	0	38	1	
12	0	0	0	0	431	511	0	0	38	1	
13	0	0	0	0	432	510	0	0	38	1	
14	0	0	0	0	487	507	0	0	38	1	
15	0	0	0	0	521	509	0	0	38	1	
0	0	0	0	0	524	510	0	0	38	1	
1	0	0	0	0	523	508	0	0	38	1	
2	0	0	0	0	514	507	0	0	38	1	
3	0	0	0	0	520	507	0	0	38	1	
4	0	0	0	0	516	505	0	0	38	1	
5	0	0	0	0	519	506	0	0	38	1	
6	0	0	0	0	518	505	0	0	38	1	
7	0	0	0	0	514	505	0	0	38	1	
8	0	0	0	0	515	506	0	0	38	1	
9	0	0	0	0	519	507	0	0	38	1	
10	0	0	0	0	516	510	0	0	38	1	
11	0	0	0	0	501	509	0	0	38	1	
12	0	0	0	0	508	510	0	0	38	1	
13	0	0	0	0	509	509	0	0	38	1	
14	0	0	0	0	507	509	0	0	38	1	
15	0	0	0	0	512	509	0	0	38	1	
0	0	0	0	0	524	508	0	0	38	1	
1	0	0	0	0	522	508	0	0	38	1	
2	0	0	0	0	514	509	0	0	38	1	
3	0	0	0	0	497	507	0	0	38	1	
4	0	0	0	0	494	505	0	0	38	1	
5	0	0	0	0	500	505	0	0	38	1	
6	0	0	0	0	506	502	0	0	38	1	
7	0	0	0	0	510	503	0	0	38	1	
8	0	0	0	0	510	505	0	0	38	1	
9	0	0	0	0	518	507	0	0	38	1	
10	0	0	0	0	511	507	0	0	38	1	
11	0	0	0	0	502	508	0	0	38	1	
12	0	0	0	0	510	508	0	0	38	1	
13	0	0	0	0	510	508	0	0	38	1	
14	0	0	0	0	512	510	0	0	38	1	
15	0	0	0	0	513	508	0	0	38	1	
0	0	0	0	0	513	509	0	0	38	1	
1	0	0	0	0	511	509	0	0	38	1	
2	0	0	0	0	507	509	0	0	38	1	
3	0	0	0	0	512	509	0	0	38	1	
4	0	0	0	0	514	508	0	0	38	1	
5	0	0	0	0	515	509	0	0	38	1	
6	0	0	0	0	523	508	0	0	38	1	
7	0	0	0	0	520	508	0	0	38	1	
8	0	0	0	0	520	507	0	0	38	1	
9	0	0	0	0	514	507	0	0	38	1	
10	0	0	0	0	496	508	0	0	38	1	
11	0	0	0	0	486	508	0	0	38	1	
12	0	0	0	0	493	509	0	0	38	1	
13	0	0	0	0	501	509	0	0	38	1	
14	0	0	0	0	505	508	0	0	38	1	
15	0	0	0	0	515	508	0	0	38	1	
0	0	0	0	0	521	507	0	0	38	1	
1	0	0	0	0	496	508	0	0	38	1	
2	0	0	0	0	499	507	0	0	38	1	
3	0	0	0	0	504	509	0	0	38	1	
4	0	0	0	0	509	509	0	196	38	1	
5	0	0	0	0	512	509	0	455	38	1	
6	0	0	0	0	509	509	0	728	38	1	
7	0	0	0	0	524	510	0	1018	38	1	
8	0	0	0	0	536	508	0	1018	38	1	
9	0	0	0	0	527	507	0	1018	38	1	
10	0	0	0	0	504	507	0	1018	38	1	
11	0	0	0	0	475	508	0	1018	38	1	
12	0	0	0	0	460	510	0	1018	38	1	
13	0	0	0	0	480	510	0	1018	38	1	
14	0	0	0	0	495	508	0	649	38	1	
15	0	0	0	0	504	510	0	231	38	1	
0	0	0	0	0	506	508	0	0	38	1	
1	0	0	0	0	500	508	0	0	38	1	
2	0	0	0	0	496	506	0	0	38	1	
3	0	0	0	0	513	506	0	0	38	1	
4	0	0	0	0	523	508	0	0	38	1	
5	0	0	0	0	514	508	0	0	38	1	
6	0	0	0	0	517	508	0	0	38	1	
7	0	0	0	0	521	506	0	0	38	1	
8	0	0	0	0	527	505	0	0	38	1	
9	0	0	0	0	531	505	0	0	38	1	
10	0	0	0	0	521	507	0	0	38	1	
11	0	0	0	0	521	509	0	0	38	1	
12	0	0	0	0	527	510	0	0	38	1	
13	0	0	0	0	523	510	0	131	38	1	
14	0	0	0	0	524	508	0	221	38	1	
15	0	0	0	0	515	508	0	273	38	1	
0	0	0	0	0	516	508	0	290	38	1	
1	0	0	0	0	516	507	0	159	38	1	
2	0	0	0	0	507	508	0	0	38	1	
3	0	0	0	0	509	507	0	0	38	1	
4	0	0	0	0	491	505	0	0	38	1	
5	0	0	0	0	479	506	0	0	38	1	
6	0	0	0	0	495	505	0	0	38	1	
7	0	0	0	0	498	504	0	0	38	1	
8	0	0	0	0	490	506	0	0	38	1	
9	0	0	0	0	479	504	0	271	38	1	
10	0	0	0	0	484	504	0	582	38	1	
11	0	0	0	0	498	506	0	881	38	1	
12	0	0	0	0	509	506	0	1018	38	1	
13	0	0	0	0	521	507	0	1018	38	1	
14	0	0	0	0	529	508	0	1018	38	1	
15	0	0	0	0	527	508	0	1018	38	1	
0	0	0	0	0	516	506	0	1017	38	1	
1	0	0	0	0	512	507	0	603	38	1	
2	0	0	0	0	505	507	0	271	38	1	
3	0	0	0	0	506	506	0	46	38	1	
4	0	0	0	0	515	507	0	0	38	1	
5	0	0	0	0	515	505	0	0	38	1	
6	0	0	0	0	499	505	0	0	38	1	
7	0	0	0	0	506	504	0	0	38	1	
8	0	0	0	0	511	506	0	0	38	1	
9	0	0	0	0	513	506	0	493	38	1	
10	0	0	0	0	521	505	0	1017	38	1	
11	0	0	0	0	524	505	0	1018	38	1	
12	0	0	0	0	519	507	0	1018	38	1	
13	0	0	0	0	516	509	0	1018	38	1	
14	0	0	0	0	519	510	0	1018	38	1	
15	0	0	0	0	516	509	0	1018	38	1	
0	0	0	0	0	504	509	0	1018	38	1	
1	0	0	0	0	501	509	0	1018	38	1	
2	0	0	0	0	507	509	0	1018	38	1	
3	0	0	0	0	505	510	0	1018	38	1	
4	0	0	0	0	506	510	0	1018	38	1	
5	0	0	0	0	505	509	0	1018	38	1	
6	0	0	0	0	511	508	0	1018	38	1	
7	0	0	0	0	508	506	0	1018	38	1	
8	0	0	0	0	519	505	0	1018	38	1	
9	0	0	0	0	522	504	0	1018	38	1	
10	0	0	0	0	519	504	0	1018	38	1	
11	0	0	0	0	513	505	0	1018	38	1	
12	0	0	0	0	502	506	0	1018	38	1	
13	0	0	0	0	491	508	0	1018	38	1	
14	0	0	0	0	504	509	0	1018	38	1	
15	0	0	0	0	505	509	0	1018	38	1	
0	0	0	0	0	506	511	0	1018	38	1	
1	0	0	0	0	519	511	0	1018	38	1	
2	0	0	0	0	516	510	0	1018	38	1	
3	0	0	0	0	506	508	0	1018	38	1	
4	0	0	0	0	495	509	0	1017	38	1	
5	0	0	0	0	496	508	0	1018	38	1	
6	0	0	0	0	506	505	0	1018	38	1	
7	0	0	0	0	510	505	0	1018	38	1	
8	0	0	0	0	505	505	0	1018	38	1	
9	0	0	0	0	497	504	0	1018	38	1	
10	0	0	0	0	484	503	0	1018	38	1	
11	0	0	0	0	483	504	0	1018	38	1	
12	0	0	0	0	490	504	0	1018	38	1	
13	0	0	0	0	504	505	0	1018	38	1	
14	0	0	0	0	513	504	0	1018	38	1	
15	0	0	0	0	517	504	0	1018	38	1	
0	0	0	0	0	515	504	0	1018	38	1	
1	0	0	0	0	521	504	0	1018	38	1	
2	0	0	0	0	541	504	0	1018	38	1	
3	0	0	0	0	541	504	0	1018	38	1	
4	0	0	0	0	533	504	0	1018	38	1	
5	0	0	0	0	521	505	0	1018	38	1	
6	0	0	0	0	513	506	0	1018	38	1	
7	0	0	0	0	490	507	0	1018	38	1	
8	0	0	0	0	485	507	0	1018	38	1	
9	0	0	0	0	478	505	0	1018	38	1	
10	0	0	0	0	488	505	0	1018	38	1	
11	0	0	0	0	497	505	0	1018	38	1	
12	0	0	0	0	496	504	0	1018	38	1	
13	0	0	0	0	504	505	0	1018	38	1	
14	0	0	0	0	520	506	0	1018	38	1	
15	0	0	0	0	525	508	0	1018	38	1	
0	0	0	0	0	522	509	0	1018	38	1	
1	0	0	0	0	524	510	0	1018	38	1	
2	0	0	0	0	533	509	0	1018	38	1	
3	0	0	0	0	535	508	0	1018	38	1	
4	0	0	0	0	537	508	0	1018	38	1	
5	0	0	0	0	532	508	0	586	38	1	
6	0	0	0	0	531	507	0	187	38	1	
7	0	0	0	0	515	505	0	0	38	1	
8	0	0	0	0	505	503	0	0	38	1	
9	0	0	0	0	480	504	0	0	38	1	
10	0	0	0	0	452	504	0	0	38	1	
11	0	0	0	0	468	502	0	0	38	1	
12	0	0	0	0	503	504	0	0	38	1	
13	0	0	0	0	500	505	0	0	38	1	
14	0	0	0	0	511	506	0	0	38	1	
15	0	0	0	0	525	507	0	0	38	1	
0	0	0	0	0	520	507	0	0	38	1	
1	0	0	0	0	508	509	0	0	38	1	
2	0	0	0	0	510	509	0	0	38	1	
3	0	0	0	0	497	509	0	0	38	1	
4	0	0	0	0	500	511	0	0	38	1	
5	0	0	0	0	508	510	0	0	38	1	
6	0	0	0	0	520	510	0	0	38	1	
7	0	0	0	0	538	508	0	0	38	1	
8	0	0	0	0	520	507	0	0	38	1	
9	0	0	0	0	482	508	0	0	38	1	
10	0	0	0	0	473	507	0	0	38	1	
11	0	0	0	0	483	506	0	0	38	1	
12	0	0	0	0	492	507	0	0	38	1	
13	0	0	0	0	499	507	0	0	38	1	
14	0	0	0	0	509	508	0	158	38	1	
15	0	0	0	0	526	508	0	389	38	1	
0	0	0	0	0	551	508	0	541	38	1	
1	0	0	0	0	549	508	0	591	38	1	
2	0	0	0	0	540	508	0	591	38	1	
3	0	0	0	0	545	510	0	651	38	1	
4	0	0	0	0	537	510	0	648	38	1	
5	0	0	0	0	528	511	0	603	38	1	
6	0	0	0	0	519	510	0	683	38	1	
7	0	0	0	0	508	510	0	673	38	1	
8	0	0	0	0	499	508	0	734	38	1	
9	0	0	0	0	488	508	0	887	38	1	
10	0	0	0	0	467	507	0	1017	38	1	
11	0	0	0	0	466	505	0	1018	38	1	
12	0	0	0	0	466	504	0	1018	38	1	
13	0	0	0	0	479	507	0	1018	38	1	
14	0	0	0	0	495	506	0	1018	38	1	
15	0	0	0	0	500	507	0	1018	38	1	
0	0	0	0	0	515	509	0	1018	38	1	
1	0	0	0	0	520	510	0	1018	38	1	
2	0	0	0	0	528	511	0	1018	38	1	
3	0	0	0	0	529	511	0	1018	38	1	
4	0	0	0	0	523	511	0	1018	38	1	
5	0	0	0	0	513	511	0	1018	38	1	
6	0	0	0	0	523	510	0	1018	38	1	
7	0	0	0	0	529	509	0	1018	38	1	
8	0	0	0	0	525	508	0	1018	38	1	
9	0	0	0	0	515	507	0	1018	38	1	
10	0	0	0	0	501	507	0	1018	38	1	
11	0	0	0	0	484	505	0	1018	38	1	
12	0	0	0	0	483	505	0	922	38	1	
13	0	0	0	0	481	503	0	955	38	1	
14	0	0	0	0	489	500	0	1018	38	1	
15	0	0	0	0	500	502	0	1018	38	1	
0	0	0	0	0	516	505	0	1018	38	1	
1	0	0	0	0	514	508	0	1017	38	1	
2	0	0	0	0	497	508	0	1017	38	1	
3	0	0	0	0	496	509	0	632	38	1	
4	0	0	0	0	497	508	0	304	38	1	
5	0	0	0	0	498	508	0	0	38	1	
6	0	0	0	0	505	508	0	0	38	1	
7	0	0	0	0	520	506	0	0	38	1	
8	0	0	0	0	529	508	0	0	38	1	
9	0	0	0	0	536	509	0	0	38	1	
10	0	0	0	0	537	506	0	0	38	1	
11	0	0	0	0	537	509	0	0	38	1	
12	0	0	0	0	530	507	0	0	38	1	
13	0	0	0	0	534	507	0	0	38	1	
14	0	0	0	0	538	505	0	0	38	1	
15	0	0	0	0	514	504	0	0	38	1	
0	0	0	0	0	497	505	0	0	38	1	
1	0	0	0	0	492	507	0	0	38	1	
2	0	0	0	0	498	508	0	0	38	1	
3	0	0	0	0	505	508	0	0	38	1	
4	0	0	0	0	500	507	0	0	38	1	
5	0	0	0	0	477	508	0	0	38	1	
6	0	0	0	0	486	509	0	0	38	1	
7	0	0	0	0	472	511	0	0	38	1	
8	0	0	0	0	472	508	0	0	38	1	
9	0	0	0	0	500	508	0	0	38	1	
10	0	0	0	0	516	508	0	0	38	1	
11	0	0	0	0	524	507	0	0	38	1	
12	0	0	0	0	523	506	0	0	38	1	
13	0	0	0	0	526	505	0	0	38	1	
14	0	0	0	0	512	506	0	0	38	1	
15	0	0	0	0	507	504	0	0	38	1	
0	0	0	0	0	514	504	0	0	38	1	
1	0	0	0	0	517	505	0	0	38	1	
2	0	0	0	0	510	508	0	0	38	1	
3	0	0	0	0	496	508	0	0	38	1	
4	0	0	0	0	500	510	0	0	38	1	
5	0	0	0	0	508	509	0	0	38	1	
6	0	0	0	0	510	508	0	0	38	1	
7	0	0	0	0	520	508	0	0	38	1	
8	0	0	0	0	520	508	0	0	38	1	
9	0	0	0	0	518	509	0	0	38	1	
10	0	0	0	0	516	509	0	0	38	1	
11	0	0	0	0	515	510	0	0	38	1	
12	0	0	0	0	511	508	0	0	38	1	
13	0	0	0	0	508	506	0	0	38	1	
14	0	0	0	0	519	508	0	0	38	1	
15	0	0	0	0	519	505	0	0	38	1	
0	0	0	0	0	516	505	0	777	38	1	
1	0	0	0	0	513	508	0	1018	38	1	
2	0	0	0	0	514	508	0	1018	38	1	
3	0	0	0	0	521	511	0	1018	38	1	
4	0	0	0	0	515	510	0	1018	38	1	
5	0	0	0	0	508	510	0	1018	38	1	
6	0	0	0	0	503	508	0	1018	38	1	
7	0	0	0	0	493	509	0	1018	38	1	
8	0	0	0	0	497	511	0	1018	38	1	
9	0	0	0	0	505	509	0	1018	38	1	
10	0	0	0	0	502	511	0	1018	38	1	
11	0	0	0	0	507	512	0	1018	38	1	
12	0	0	0	0	516	512	0	1018	38	1	
13	0	0	0	0	514	511	0	1018	38	1	
14	0	0	0	0	507	510	0	1018	38	1	
15	0	0	0	0	502	508	0	1018	38	1	
0	0	0	0	0	505	509	0	1018	38	1	
1	0	0	0	0	502	507	0	1018	38	1	
2	0	0	0	0	497	508	0	1018	38	1	
3	0	0	0	0	510	506	0	1018	38	1	
4	0	0	0	0	520	506	0	1018	38	1	
5	0	0	0	0	514	509	0	1018	38	1	
6	0	0	0	0	519	511	0	1018	38	1	
7	0	0	0	0	531	510	0	1018	38	1	
8	0	0	0	0	513	510	0	1018	38	1	
9	0	0	0	0	498	508	0	1018	38	1	
10	0	0	0	0	503	508	0	1018	38	1	
11	0	0	0	0	516	508	0	1018	38	1	
12	0	0	0	0	530	508	0	1018	38	1	
13	0	0	0	0	524	506	0	1018	38	1	
14	0	0	0	0	504	506	0	1018	38	1	
15	0	0	0	0	483	507	0	1018	38	1	
0	0	0	0	0	448	506	0	1018	38	1	
1	0	0	0	0	433	504	0	1018	38	1	
2	0	0	0	0	450	505	0	1018	38	1	
3	0	0	0	0	483	505	0	1018	38	1	
4	0	0	0	0	535	507	0	1018	38	1	
5	0	0	0	0	560	510	0	1018	38	1	
6	0	0	0	0	544	511	0	1018	38	1	
7	0	0	0	0	518	510	0	1018	38	1	
8	0	0	0	0	507	510	0	1018	38	1	
9	0	0	0	0	496	510	0	1018	38	1	
10	0	0	0	0	511	508	0	1018	38	1	
11	0	0	0	0	527	509	0	1018	38	1	
12	0	0	0	0	539	508	0	1018	38	1	
13	0	0	0	0	526	508	0	733	38	1	
14	0	0	0	0	511	508	0	297	38	1	
15	0	0	0	0	515	507	0	0	38	1	
0	0	0	0	0	521	507	0	0	38	1	
1	0	0	0	0	525	506	0	0	38	1	
2	0	0	0	0	522	505	0	0	38	1	
3	0	0	0	0	504	504	0	0	38	1	
4	0	0	0	0	484	507	0	0	38	1	
5	0	0	0	0	483	508	0	0	38	1	
6	0	0	0	0	495	509	0	77	38	1	
7	0	0	0	0	513	510	0	52	38	1	
8	0	0	0	0	518	511	0	0	38	1	
9	0	0	0	0	510	510	0	0	38	1	
10	0	0	0	0	511	510	0	52	38	1	
11	0	0	0	0	515	510	0	31	38	1	
12	0	0	0	0	508	510	0	0	38	1	
13	0	0	0	0	499	510	0	0	38	1	
14	0	0	0	0	503	508	0	0	38	1	
15	0	0	0	0	508	508	0	142	38	1	
0	0	0	0	0	511	506	0	264	38	1	
1	0	0	0	0	517	506	0	419	38	1	
2	0	0	0	0	522	505	0	648	38	1	
3	0	0	0	0	515	505	0	942	38	1	
4	0	0	0	0	509	507	0	1017	38	1	
5	0	0	0	0	507	508	0	1018	38	1	
6	0	0	0	0	509	507	0	1018	38	1	
7	0	0	0	0	511	508	0	1018	38	1	
8	0	0	0	0	521	507	0	1018	38	1	
9	0	0	0	0	512	508	0	761	38	1	
10	0	0	0	0	501	505	0	221	38	1	
11	0	0	0	0	504	504	0	0	38	1	
12	0	0	0	0	511	503	0	0	38	1	
13	0	0	0	0	502	502	0	0	38	1	
14	0	0	0	0	502	504	0	0	38	1	
15	0	0	0	0	504	504	0	0	38	1	
0	0	0	0	0	507	505	0	0	38	1	
1	0	0	0	0	509	504	0	0	38	1	
2	0	0	0	0	517	504	0	0	38	1	
3	0	0	0	0	523	504	0	0	38	1	
4	0	0	0	0	526	506	0	0	38	1	
5	0	0	0	0	530	507	0	0	38	1	
6	0	0	0	0	524	509	0	0	38	1	
7	0	0	0	0	517	508	0	0	38	1	
8	0	0	0	0	533	510	0	0	38	1	
9	0	0	0	0	539	509	0	0	38	1	
10	0	0	0	0	513	510	0	0	38	1	
11	0	0	0	0	492	511	0	0	38	1	
12	0	0	0	0	470	510	0	0	38	1	
13	0	0	0	0	449	509	0	0	38	1	
14	0	0	0	0	456	509	0	0	38	1	
15	0	0	0	0	459	507	0	0	38	1	
0	0	0	0	0	468	506	0	0	38	1	
1	0	0	0	0	483	506	0	0	38	1	
2	0	0	0	0	517	506	0	0	38	1	
3	0	0	0	0	544	504	0	299	38	1	
4	0	0	0	0	548	505	0	701	38	1	
5	0	0	0	0	535	507	0	1018	38	1	
6	0	0	0	0	520	508	0	1018	38	1	
7	0	0	0	0	503	511	0	1018	38	1	
8	0	0	0	0	497	511	0	1018	38	1	
9	0	0	0	0	499	511	0	1018	38	1	
10	0	0	0	0	513	510	0	1018	38	1	
11	0	0	0	0	515	509	0	1018	38	1	
12	0	0	0	0	519	508	0	1018	38	1	
13	0	0	0	0	519	507	0	1018	38	1	
14	0	0	0	0	523	505	0	894	38	1	
15	0	0	0	0	540	507	0	695	38	1	
0	0	0	0	0	540	506	0	678	38	1	
1	0	0	0	0	526	507	0	696	38	1	
2	0	0	0	0	520	505	0	792	38	1	
3	0	0	0	0	496	504	0	1016	38	1	
4	0	0	0	0	483	507	0	1018	38	1	
5	0	0	0	0	496	506	0	1018	38	1	
6	0	0	0	0	500	507	0	1018	38	1	
7	0	0	0	0	517	507	0	1018	38	1	
8	0	0	0	0	478	509	0	1018	38	1	
9	0	0	0	0	445	511	0	1018	38	1	
10	0	0	0	0	455	510	0	1018	38	1	
11	0	0	0	0	500	509	0	1018	38	1	
12	0	0	0	0	529	507	0	1018	38	1	
13	0	0	0	0	518	508	0	1018	38	1	
14	0	0	0	0	498	507	0	1018	38	1	
15	0	0	0	0	519	508	0	1018	38	1	
0	0	0	0	0	534	508	0	1018	38	1	
1	0	0	0	0	536	507	0	1018	38	1	
2	0	0	0	0	535	508	0	1018	38	1	
3	0	0	0	0	532	507	0	1018	38	1	
4	0	0	0	0	520	507	0	1018	38	1	
5	0	0	0	0	514	508	0	1018	38	1	
6	0	0	0	0	517	505	0	1018	38	1	
7	0	0	0	0	509	509	0	1018	38	1	
8	0	0	0	0	503	509	0	1018	38	1	
9	0	0	0	0	501	508	0	1018	38	1	
10	0	0	0	0	495	509	0	1018	38	1	
11	0	0	0	0	501	506	0	1018	38	1	
12	0	0	0	0	497	507	0	1018	38	1	
13	0	0	0	0	494	507	0	1018	38	1	
14	0	0	0	0	509	508	0	1018	38	1	
15	0	0	0	0	511	510	0	1018	38	1	
0	0	0	0	0	519	509	0	1018	38	1	
1	0	0	0	0	511	510	0	1018	38	1	
2	0	0	0	0	511	510	0	1018	38	1	
3	0	0	0	0	516	508	0	1018	38	1	
4	0	0	0	0	510	507	0	1018	38	1	
5	0	0	0	0	503	505	0	1018	38	1	
6	0	0	0	0	510	504	0	1018	38	1	
7	0	0	0	0	519	505	0	1018	38	1	
8	0	0	0	0	520	506	0	1018	38	1	
9	0	0	0	0	523	507	0	1018	38	1	
10	0	0	0	0	515	508	0	1018	38	1	
11	0	0	0	0	504	510	0	1018	38	1	
12	0	0	0	0	497	511	0	1018	38	1	
13	0	0	0	0	493	511	0	1018	38	1	
14	0	0	0	0	499	510	0	1018	38	1	
15	0	0	0	0	511	508	0	1018	38	1	
0	0	0	0	0	512	507	0	1018	38	1	
1	0	0	0	0	514	506	0	1018	38	1	
2	0	0	0	0	517	505	0	1018	38	1	
3	0	0	0	0	518	506	0	1018	38	1	
4	0	0	0	0	510	505	0	1018	38	1	
5	0	0	0	0	506	504	0	1018	38	1	
6	0	0	0	0	508	503	0	1018	38	1	
7	0	0	0	0	503	504	0	1018	38	1	
8	0	0	0	0	506	506	0	1018	38	1	
9	0	0	0	0	507	507	0	1018	38	1	
10	0	0	0	0	509	508	0	1018	38	1	
11	0	0	0	0	512	508	0	1018	38	1	
12	0	0	0	0	518	507	0	1018	38	1	
13	0	0	0	0	515	507	0	1018	38	1	
14	0	0	0	0	508	507	0	1018	38	1	
15	0	0	0	0	507	506	0	1017	38	1	
0	0	0	0	0	508	505	0	487	38	1	
1	0	0	0	0	511	507	0	112	38	1	
2	0	0	0	0	523	509	0	0	38	1	
3	0	0	0	0	537	508	0	0	38	1	
4	0	0	0	0	540	508	0	0	38	1	
5	0	0	0	0	512	507	0	0	38	1	
6	0	0	0	0	486	505	0	0	38	1	
7	0	0	0	0	480	504	0	0	38	1	
8	0	0	0	0	485	504	0	197	38	1	
9	0	0	0	0	489	506	0	576	38	1	
10	0	0	0	0	495	508	0	926	38	1	
11	0	0	0	0	508	508	0	1018	38	1	
12	0	0	0	0	513	509	0	1017	38	1	
13	0	0	0	0	523	509	0	1018	38	1	
14	0	0	0	0	503	509	0	808	38	1	
15	0	0	0	0	504	509	0	504	38	1	
0	0	0	0	0	519	509	0	225	38	1	
1	0	0	0	0	530	510	0	99	38	1	
2	0	0	0	0	501	509	0	0	38	1	
3	0	0	0	0	520	511	0	0	38	1	
4	0	0	0	0	534	511	0	0	38	1	
5	0	0	0	0	514	510	0	0	38	1	
6	0	0	0	0	486	508	0	0	38	1	
7	0	0	0	0	468	506	0	0	38	1	
8	0	0	0	0	466	505	0	0	38	1	
9	0	0	0	0	485	507	0	0	38	1	
10	0	0	0	0	513	508	0	0	38	1	
11	0	0	0	0	523	508	0	309	38	1	
12	0	0	0	0	524	508	0	538	38	1	
13	0	0	0	0	510	508	0	682	38	1	
14	0	0	0	0	479	509	0	689	38	1	
15	0	0	0	0	476	509	0	434	38	1	
0	0	0	0	0	498	509	0	12	38	1	
1	0	0	0	0	512	508	0	0	38	1	
2	0	0	0	0	534	508	0	0	38	1	
3	0	0	0	0	556	507	0	0	38	1	
4	0	0	0	0	545	505	0	0	38	1	
5	0	0	0	0	529	505	0	0	38	1	
6	0	0	0	0	519	504	0	0	38	1	
7	0	0	0	0	517	504	0	0	38	1	
8	0	0	0	0	516	504	0	0	38	1	
9	0	0	0	0	507	504	0	0	38	1	
10	0	0	0	0	496	504	0	0	38	1	
11	0	0	0	0	508	505	0	0	38	1	
12	0	0	0	0	488	507	0	0	38	1	
13	0	0	0	0	472	508	0	0	38	1	
14	0	0	0	0	485	508	0	0	38	1	
15	0	0	0	0	497	508	0	0	38	1	
0	0	0	0	0	504	508	0	0	38	1	
1	0	0	0	0	517	510	0	0	38	1	
2	0	0	0	0	522	510	0	0	38	1	
3	0	0	0	0	525	510	0	0	38	1	
4	0	0	0	0	523	510	0	0	38	1	
5	0	0	0	0	521	509	0	0	38	1	
6	0	0	0	0	521	509	0	0	38	1	
7	0	0	0	0	516	508	0	0	38	1	
8	0	0	0	0	512	506	0	0	38	1	
9	0	0	0	0	508	504	0	0	38	1	
10	0	0	0	0	508	506	0	0	38	1	
11	0	0	0	0	504	507	0	0	38	1	
12	0	0	0	0	499	507	0	0	38	1	
13	0	0	0	0	501	509	0	0	38	1	
14	0	0	0	0	508	511	0	0	38	1	
15	0	0	0	0	510	512	0	0	38	1	
0	0	0	0	0	510	513	0	0	38	1	
1	0	0	0	0	512	513	0	0	38	1	
2	0	0	0	0	508	511	0	0	38	1	
3	0	0	0	0	509	511	0	0	38	1	
4	0	0	0	0	518	510	0	0	38	1	
5	0	0	0	0	514	508	0	0	38	1	
6	0	0	0	0	509	508	0	0	38	1	
7	0	0	0	0	501	507	0	0	38	1	
8	0	0	0	0	507	506	0	0	38	1	
9	0	0	0	0	505	504	0	0	38	1	
10	0	0	0	0	504	504	0	0	38	1	
11	0	0	0	0	508	506	0	0	38	1	
12	0	0	0	0	519	508	0	0	38	1	
13	0	0	0	0	521	508	0	0	38	1	
14	0	0	0	0	530	507	0	0	38	1	
15	0	0	0	0	538	507	0	0	38	1	
0	0	0	0	0	534	508	0	0	38	1	
1	0	0	0	0	513	507	0	0	38	1	
2	0	0	0	0	494	506	0	0	38	1	
3	0	0	0	0	486	506	0	0	38	1	
4	0	0	0	0	496	505	0	0	38	1	
5	0	0	0	0	503	506	0	0	38	1	
6	0	0	0	0	495	504	0	0	38	1	
7	0	0	0	0	480	505	0	0	38	1	
8	0	0	0	0	487	507	0	0	38	1	
9	0	0	0	0	501	507	0	0	38	1	
10	0	0	0	0	499	506	0	0	38	1	
11	0	0	0	0	497	505	0	0	38	1	
12	0	0	0	0	508	504	0	0	38	1	
13	0	0	0	0	505	505	0	0	38	1	
14	0	0	0	0	502	507	0	0	38	1	
15	0	0	0	0	505	509	0	0	38	1	
0	0	0	0	0	511	510	0	0	38	1	
1	0	0	0	0	532	510	0	0	38	1	
2	0	0	0	0	547	510	0	0	38	1	
3	0	0	0	0	540	510	0	0	38	1	
4	0	0	0	0	525	511	0	0	38	1	
5	0	0	0	0	489	509	0	0	38	1	
6	0	0	0	0	476	508	0	0	38	1	
7	0	0	0	0	483	508	0	0	38	1	
8	0	0	0	0	491	505	0	0	38	1	
9	0	0	0	0	497	505	0	0	38	1	
10	0	0	0	0	520	505	0	0	38	1	
11	0	0	0	0	525	505	0	0	38	1	
12	0	0	0	0	527	508	0	0	38	1	
13	0	0	0	0	534	508	0	0	38	1	
14	0	0	0	0	537	508	0	0	38	1	
15	0	0	0	0	505	510	0	0	38	1	
0	0	0	0	0	501	511	0	0	38	1	
1	0	0	0	0	522	509	0	0	38	1	
2	0	0	0	0	527	508	0	0	38	1	
3	0	0	0	0	517	509	0	0	38	1	
4	0	0	0	0	510	508	0	0	38	1	
5	0	0	0	0	512	511	0	0	38	1	
6	0	0	0	0	505	510	0	0	38	1	
7	0	0	0	0	475	510	0	0	38	1	
8	0	0	0	0	457	509	0	0	38	1	
9	0	0	0	0	466	509	0	0	38	1	
10	0	0	0	0	484	509	0	0	38	1	
11	0	0	0	0	487	508	0	0	38	1	
12	0	0	0	0	496	507	0	0	38	1	
13	0	0	0	0	503	505	0	0	38	1	
14	0	0	0	0	510	508	0	0	38	1	
15	0	0	0	0	522	510	0	0	38	1	
0	0	0	0	0	529	509	0	0	38	1	
1	0	0	0	0	530	509	0	0	38	1	
2	0	0	0	0	532	510	0	0	38	1	
3	0	0	0	0	530	509	0	0	38	1	
4	0	0	0	0	529	512	0	0	38	1	
5	0	0	0	0	515	510	0	0	38	1	
6	0	0	0	0	503	508	0	0	38	1	
7	0	0	0	0	513	508	0	0	38	1	
8	0	0	0	0	513	508	0	0	38	1	
9	0	0	0	0	508	508	0	0	38	1	
10	0	0	0	0	512	508	0	0	38	1	
11	0	0	0	0	510	505	0	0	38	1	
12	0	0	0	0	514	506	0	0	38	1	
13	0	0	0	0	516	507	0	0	38	1	
14	0	0	0	0	517	508	0	0	38	1	
15	0	0	0	0	513	508	0	0	38	1	
0	0	0	0	0	511	508	0	0	38	1	
1	0	0	0	0	504	513	0	0	38	1	
2	0	0	0	0	499	512	0	0	38	1	
3	0	0	0	0	507	513	0	0	38	1	
4	0	0	0	0	511	514	0	0	38	1	
5	0	0	0	0	510	514	0	0	38	1	
6	0	0	0	0	511	511	0	0	38	1	
7	0	0	0	0	509	511	0	0	38	1	
8	0	0	0	0	502	511	0	0	38	1	
9	0	0	0	0	490	509	0	0	38	1	
10	0	0	0	0	504	508	0	0	38	1	
11	0	0	0	0	522	507	0	0	38	1	
12	0	0	0	0	520	506	0	0	38	1	
13	0	0	0	0	517	505	0	0	38	1	
14	0	0	0	0	502	505	0	0	38	1	
15	0	0	0	0	499	506	0	0	38	1	
0	0	0	0	0	492	508	0	0	38	1	
1	0	0	0	0	481	509	0	0	38	1	
2	0	0	0	0	487	510	0	0	38	1	
3	0	0	0	0	493	510	0	0	38	1	
4	0	0	0	0	501	509	0	0	38	1	
5	0	0	0	0	519	509	0	0	38	1	
6	0	0	0	0	519	509	0	0	38	1	
7	0	0	0	0	545	511	0	0	38	1	
8	0	0	0	0	550	510	0	0	38	1	
9	0	0	0	0	536	510	0	0	38	1	
10	0	0	0	0	523	510	0	0	38	1	
11	0	0	0	0	518	510	0	0	38	1	
12	0	0	0	0	495	509	0	0	38	1	
13	0	0	0	0	487	509	0	214	38	1	
14	0	0	0	0	487	508	0	669	38	1	
15	0	0	0	0	480	508	0	1018	38	1	
0	0	0	0	0	481	508	0	1018	38	1	
1	0	0	0	0	492	509	0	1018	38	1	
2	0	0	0	0	506	509	0	1018	38	1	
3	0	0	0	0	514	510	0	1018	38	1	
4	0	0	0	0	523	510	0	1018	38	1	
5	0	0	0	0	531	508	0	1018	38	1	
6	0	0	0	0	526	509	0	1018	38	1	
7	0	0	0	0	522	507	0	1018	38	1	
8	0	0	0	0	519	508	0	1017	38	1	
9	0	0	0	0	530	509	0	1018	38	1	
10	0	0	0	0	529	509	0	1018	38	1	
11	0	0	0	0	530	509	0	1018	38	1	
12	0	0	0	0	508	508	0	1018	38	1	
13	0	0	0	0	499	508	0	1018	38	1	
14	0	0	0	0	493	508	0	1018	38	1	
15	0	0	0	0	484	509	0	1018	38	1	
0	0	0	0	0	480	509	0	1018	38	1	
1	0	0	0	0	486	508	0	1018	38	1	
2	0	0	0	0	493	508	0	1018	38	1	
3	0	0	0	0	502	509	0	1018	38	1	
4	0	0	0	0	507	510	0	1018	38	1	
5	0	0	0	0	497	509	0	1018	38	1	
6	0	0	0	0	497	508	0	1018	38	1	
7	0	0	0	0	515	508	0	1018	38	1	
8	0	0	0	0	519	509	0	1018	38	1	
9	0	0	0	0	517	512	0	1018	38	1	
10	0	0	0	0	515	511	0	1018	38	1	
11	0	0	0	0	510	508	0	1018	38	1	
12	0	0	0	0	515	507	0	1018	38	1	
13	0	0	0	0	523	504	0	1018	38	1	
14	0	0	0	0	514	503	0	1018	38	1	
15	0	0	0	0	509	503	0	1018	38	1	
0	0	0	0	0	499	504	0	1018	38	1	
1	0	0	0	0	497	504	0	1018	38	1	
2	0	0	0	0	506	504	0	1018	38	1	
3	0	0	0	0	515	507	0	1018	38	1	
4	0	0	0	0	533	507	0	1018	38	1	
5	0	0	0	0	534	505	0	1018	38	1	
6	0	0	0	0	527	504	0	1018	38	1	
7	0	0	0	0	518	505	0	1018	38	1	
8	0	0	0	0	519	507	0	1018	38	1	
9	0	0	0	0	515	508	0	1018	38	1	
10	0	0	0	0	514	507	0	1018	38	1	
11	0	0	0	0	514	507	0	1018	38	1	
12	0	0	0	0	503	507	0	1018	38	1	
13	0	0	0	0	493	507	0	1018	38	1	
14	0	0	0	0	485	507	0	1018	38	1	
15	0	0	0	0	487	506	0	1018	39	1	
0	0	0	0	0	504	507	0	1018	38	1	
1	0	0	0	0	513	506	0	1018	38	1	
2	0	0	0	0	527	505	0	1018	38	1	
3	0	0	0	0	539	508	0	1018	38	1	
4	0	0	0	0	556	507	0	1018	38	1	
5	0	0	0	0	558	511	0	1017	38	1	
6	0	0	0	0	547	510	0	1018	38	1	
7	0	0	0	0	531	509	0	1018	38	1	
8	0	0	0	0	499	510	0	1018	38	1	
9	0	0	0	0	457	509	0	1018	38	1	
10	0	0	0	0	431	509	0	1018	38	1	
11	0	0	0	0	419	508	0	1018	38	1	
12	0	0	0	0	420	507	0	1018	38	1	
13	0	0	0	0	443	508	0	1018	38	1	
14	0	0	0	0	506	506	0	1018	38	1	
15	0	0	0	0	529	506	0	1018	38	1	
0	0	0	0	0	532	508	0	1018	38	1	
1	0	0	0	0	524	508	0	1018	38	1	
2	0	0	0	0	536	511	0	1018	38	1	
3	0	0	0	0	527	510	0	1018	38	1	
4	0	0	0	0	526	510	0	1017	38	1	
5	0	0	0	0	529	509	0	1018	38	1	
6	0	0	0	0	519	510	0	1018	38	1	
7	0	0	0	0	516	510	0	1018	38	1	
8	0	0	0	0	529	507	0	1018	38	1	
9	0	0	0	0	521	506	0	1018	38	1	
10	0	0	0	0	513	506	0	1018	38	1	
11	0	0	0	0	515	507	0	1018	38	1	
12	0	0	0	0	520	508	0	1018	38	1	
13	0	0	0	0	513	508	0	1018	38	1	
14	0	0	0	0	513	507	0	1018	38	1	
15	0	0	0	0	518	507	0	1018	38	1	
0	0	0	0	0	513	507	0	1018	38	1	
1	0	0	0	0	514	507	0	1018	38	1	
2	0	0	0	0	520	507	0	1018	38	1	
3	0	0	0	0	514	509	0	1018	38	1	
4	0	0	0	0	510	509	0	1018	38	1	
5	0	0	0	0	504	511	0	1018	38	1	
6	0	0	0	0	507	511	0	1018	38	1	
7	0	0	0	0	508	513	0	1018	38	1	
8	0	0	0	0	509	512	0	1018	38	1	
9	0	0	0	0	503	512	0	1018	38	1	
10	0	0	0	0	487	513	0	1018	38	1	
11	0	0	0	0	472	511	0	1018	38	1	
12	0	0	0	0	493	511	0	1018	38	1	
13	0	0	0	0	508	511	0	1017	38	1	
14	0	0	0	0	523	508	0	699	38	1	
15	0	0	0	0	508	508	0	526	38	1	
0	0	0	0	0	503	507	0	554	38	1	
1	0	0	0	0	511	505	0	632	38	1	
2	0	0	0	0	515	503	0	822	38	1	
3	0	0	0	0	519	505	0	1018	38	1	
4	0	0	0	0	514	504	0	1018	38	1	
5	0	0	0	0	519	508	0	1018	38	1	
6	0	0	0	0	521	507	0	1018	38	1	
7	0	0	0	0	518	506	0	1018	38	1	
8	0	0	0	0	502	507	0	1018	38	1	
9	0	0	0	0	504	507	0	1018	38	1	
10	0	0	0	0	506	508	0	1018	38	1	
11	0	0	0	0	502	505	0	1018	38	1	
12	0	0	0	0	499	506	0	1018	38	1	
13	0	0	0	0	497	505	0	1018	38	1	
14	0	0	0	0	500	505	0	855	38	1	
15	0	0	0	0	515	506	0	756	38	1	
0	0	0	0	0	515	504	0	749	38	1	
1	0	0	0	0	500	503	0	743	38	1	
2	0	0	0	0	489	504	0	795	38	1	
3	0	0	0	0	502	504	0	920	38	1	
4	0	0	0	0	524	506	0	1017	38	1	
5	0	0	0	0	524	507	0	1018	38	1	
6	0	0	0	0	506	507	0	1018	38	1	
7	0	0	0	0	510	508	0	1018	38	1	
8	0	0	0	0	524	507	0	1018	38	1	
9	0	0	0	0	517	508	0	1017	38	1	
10	0	0	0	0	534	508	0	547	38	1	
11	0	0	0	0	552	507	0	184	38	1	
12	0	0	0	0	527	507	0	0	38	1	
13	0	0	0	0	497	508	0	0	38	1	
14	0	0	0	0	494	508	0	0	38	1	
15	0	0	0	0	480	506	0	0	38	1	
0	0	0	0	0	472	504	0	0	38	1	
1	0	0	0	0	485	504	0	0	38	1	
2	0	0	0	0	499	502	0	0	38	1	
3	0	0	0	0	534	503	0	0	38	1	
4	0	0	0	0	543	502	0	0	38	1	
5	0	0	0	0	508	503	0	0	38	1	
6	0	0	0	0	505	505	0	0	38	1	
7	0	0	0	0	506	505	0	0	38	1	
8	0	0	0	0	498	505	0	0	38	1	
9	0	0	0	0	488	505	0	0	38	1	
10	0	0	0	0	476	504	0	0	38	1	
11	0	0	0	0	496	504	0	0	38	1	
12	0	0	0	0	510	504	0	0	38	1	
13	0	0	0	0	523	506	0	0	38	1	
14	0	0	0	0	508	507	0	0	38	1	
15	0	0	0	0	502	506	0	0	38	1	
0	0	0	0	0	510	506	0	0	38	1	
1	0	0	0	0	509	508	0	0	38	1	
2	0	0	0	0	522	508	0	0	38	1	
3	0	0	0	0	553	506	0	0	38	1	
4	0	0	0	0	557	507	0	0	38	1	
5	0	0	0	0	539	507	0	0	38	1	
6	0	0	0	0	527	510	0	0	38	1	
7	0	0	0	0	508	510	0	0	38	1	
8	0	0	0	0	484	510	0	0	38	1	
9	0	0	0	0	470	511	0	0	38	1	
10	0	0	0	0	480	511	0	0	38	1	
11	0	0	0	0	499	510	0	0	38	1	
12	0	0	0	0	516	509	0	0	38	1	
13	0	0	0	0	510	508	0	0	38	1	
14	0	0	0	0	499	508	0	0	38	1	
15	0	0	0	0	496	509	0	0	38	1	
0	0	0	0	0	477	508	0	0	38	1	
1	0	0	0	0	471	507	0	0	38	1	
2	0	0	0	0	498	506	0	0	38	1	
3	0	0	0	0	524	505	0	0	38	1	
4	0	0	0	0	538	505	0	0	38	1	
5	0	0	0	0	539	505	0	0	38	1	
6	0	0	0	0	531	505	0	0	38	1	
7	0	0	0	0	513	506	0	0	38	1	
8	0	0	0	0	507	507	0	0	38	1	
9	0	0	0	0	507	508	0	0	38	1	
10	0	0	0	0	516	509	0	0	38	1	
11	0	0	0	0	518	510	0	0	38	1	
12	0	0	0	0	507	511	0	0	38	1	
13	0	0	0	0	469	510	0	0	38	1	
14	0	0	0	0	481	508	0	0	38	1	
15	0	0	0	0	518	509	0	0	38	1	
0	0	0	0	0	517	508	0	0	38	1	
1	0	0	0	0	534	507	0	0	38	1	
2	0	0	0	0	543	507	0	0	38	1	
3	0	0	0	0	535	506	0	0	38	1	
4	0	0	0	0	498	505	0	0	38	1	
5	0	0	0	0	496	506	0	0	38	1	
6	0	0	0	0	505	506	0	0	38	1	
7	0	0	0	0	496	508	0	0	38	1	
8	0	0	0	0	502	509	0	0	38	1	
9	0	0	0	0	500	509	0	0	38	1	
10	0	0	0	0	506	509	0	0	38	1	
11	0	0	0	0	519	508	0	0	38	1	
12	0	0	0	0	522	507	0	0	38	1	
13	0	0	0	0	526	508	0	0	38	1	
14	0	0	0	0	512	508	0	0	38	1	
15	0	0	0	0	508	508	0	95	38	1	
0	0	0	0	0	505	508	0	196	38	1	
1	0	0	0	0	508	508	0	299	38	1	
2	0	0	0	0	496	507	0	504	38	1	
3	0	0	0	0	497	507	0	619	38	1	
4	0	0	0	0	502	506	0	821	38	1	
5	0	0	0	0	519	504	0	1018	38	1	
6	0	0	0	0	555	503	0	1018	38	1	
7	0	0	0	0	561	505	0	1018	38	1	
8	0	0	0	0	540	504	0	1018	38	1	
9	0	0	0	0	521	506	0	1018	38	1	
10	0	0	0	0	484	506	0	1018	38	1	
11	0	0	0	0	433	507	0	1018	38	1	
12	0	0	0	0	420	508	0	1018	38	1	
13	0	0	0	0	455	508	0	1018	38	1	
14	0	0	0	0	504	509	0	1018	38	1	
15	0	0	0	0	524	508	0	1018	38	1	
0	0	0	0	0	523	508	0	1018	38	1	
1	0	0	0	0	523	507	0	1018	38	1	
2	0	0	0	0	504	508	0	1018	38	1	
3	0	0	0	0	517	509	0	1018	38	1	
4	0	0	0	0	517	508	0	1018	38	1	
5	0	0	0	0	519	508	0	1018	38	1	
6	0	0	0	0	529	507	0	1018	38	1	
7	0	0	0	0	532	506	0	1018	38	1	
8	0	0	0	0	534	506	0	1018	38	1	
9	0	0	0	0	526	508	0	1017	38	1	
10	0	0	0	0	523	508	0	631	38	1	
11	0	0	0	0	526	509	0	220	38	1	
12	0	0	0	0	519	510	0	0	38	1	
13	0	0	0	0	505	511	0	0	38	1	
14	0	0	0	0	496	509	0	0	38	1	
15	0	0	0	0	486	508	0	0	38	1	
0	0	0	0	0	460	508	0	0	38	1	
1	0	0	0	0	465	509	0	0	38	1	
2	0	0	0	0	490	508	0	0	38	1	
3	0	0	0	0	507	508	0	0	38	1	
4	0	0	0	0	509	508	0	0	38	1	
5	0	0	0	0	507	507	0	0	38	1	
6	0	0	0	0	495	506	0	0	38	1	
7	0	0	0	0	484	506	0	0	38	1	
8	0	0	0	0	470	505	0	0	38	1	
9	0	0	0	0	488	508	0	0	38	1	
10	0	0	0	0	508	508	0	0	38	1	
11	0	0	0	0	522	509	0	0	38	1	
12	0	0	0	0	536	510	0	0	38	1	
13	0	0	0	0	536	508	0	0	38	1	
14	0	0	0	0	540	507	0	0	38	1	
15	0	0	0	0	532	509	0	0	38	1	
0	0	0	0	0	539	508	0	0	38	1	
1	0	0	0	0	539	510	0	0	38	1	
2	0	0	0	0	548	508	0	0	38	1	
3	0	0	0	0	543	508	0	0	38	1	
4	0	0	0	0	530	508	0	0	38	1	
5	0	0	0	0	514	509	0	0	38	1	
6	0	0	0	0	507	508	0	0	38	1	
7	0	0	0	0	495	507	0	0	38	1	
8	0	0	0	0	485	508	0	0	38	1	
9	0	0	0	0	486	508	0	0	38	1	
10	0	0	0	0	503	509	0	0	38	1	
11	0	0	0	0	500	509	0	0	38	1	
12	0	0	0	0	506	510	0	0	38	1	
13	0	0	0	0	505	511	0	0	38	1	
14	0	0	0	0	500	513	0	0	38	1	
15	0	0	0	0	500	511	0	0	38	1	
0	0	0	0	0	491	511	0	0	38	1	
1	0	0	0	0	484	509	0	0	38	1	
2	0	0	0	0	506	510	0	0	38	1	
3	0	0	0	0	526	510	0	0	38	1	
4	0	0	0	0	501	508	0	0	38	1	
5	0	0	0	0	472	508	0	0	38	1	
6	0	0	0	0	490	508	0	0	38	1	
7	0	0	0	0	517	505	0	0	38	1	
8	0	0	0	0	517	505	0	0	38	1	
9	0	0	0	0	499	507	0	0	38	1	
10	0	0	0	0	500	507	0	0	38	1	
11	0	0	0	0	514	506	0	0	38	1	
12	0	0	0	0	517	508	0	0	38	1	
13	0	0	0	0	506	508	0	0	38	1	
14	0	0	0	0	502	508	0	0	38	1	
15	0	0	0	0	514	509	0	0	38	1	
0	0	0	0	0	535	508	0	0	38	1	
1	0	0	0	0	543	506	0	0	38	1	
2	0	0	0	0	535	506	0	0	38	1	
3	0	0	0	0	528	507	0	0	38	1	
4	0	0	0	0	519	508	0	0	38	1	
5	0	0	0	0	513	507	0	0	38	1	
6	0	0	0	0	514	506	0	0	38	1	
7	0	0	0	0	517	505	0	0	38	1	
8	0	0	0	0	516	504	0	0	38	1	
9	0	0	0	0	526	504	0	0	38	1	
10	0	0	0	0	508	505	0	0	38	1	
11	0	0	0	0	487	505	0	0	38	1	
12	0	0	0	0	482	506	0	699	38	1	
13	0	0	0	0	491	507	0	1018	38	1	
14	0	0	0	0	504	509	0	1018	38	1	
15	0	0	0	0	502	508	0	1018	38	1	
0	0	0	0	0	494	509	0	1018	38	1	
1	0	0	0	0	501	509	0	1018	38	1	
2	0	0	0	0	497	508	0	1018	38	1	
3	0	0	0	0	505	509	0	1018	38	1	
4	0	0	0	0	520	507	0	1018	38	1	
5	0	0	0	0	520	507	0	1018	38	1	
6	0	0	0	0	516	507	0	1018	38	1	
7	0	0	0	0	505	507	0	1018	38	1	
8	0	0	0	0	529	506	0	1018	38	1	
9	0	0	0	0	542	508	0	1018	38	1	
10	0	0	0	0	550	508	0	1018	38	1	
11	0	0	0	0	541	510	0	1018	38	1	
12	0	0	0	0	496	510	0	1018	38	1	
13	0	0	0	0	460	509	0	1018	38	1	
14	0	0	0	0	442	508	0	1018	38	1	
15	0	0	0	0	454	507	0	1018	38	1	
0	0	0	0	0	470	508	0	1018	38	1	
1	0	0	0	0	517	505	0	1018	38	1	
2	0	0	0	0	543	507	0	1018	38	1	
3	0	0	0	0	535	508	0	1018	38	1	
4	0	0	0	0	523	506	0	1018	38	1	
5	0	0	0	0	504	506	0	1018	38	1	
6	0	0	0	0	483	505	0	1018	38	1	
7	0	0	0	0	464	505	0	1018	38	1	
8	0	0	0	0	471	504	0	1018	38	1	
9	0	0	0	0	492	503	0	1018	38	1	
10	0	0	0	0	515	502	0	1018	38	1	
11	0	0	0	0	521	503	0	1018	38	1	
12	0	0	0	0	523	504	0	1018	38	1	
13	0	0	0	0	523	505	0	1018	38	1	
14	0	0	0	0	547	505	0	1018	38	1	
15	0	0	0	0	548	507	0	1018	38	1	
0	0	0	0	0	546	506	0	1018	38	1	
1	0	0	0	0	527	507	0	1018	38	1	
2	0	0	0	0	512	507	0	1018	38	1	
3	0	0	0	0	527	507	0	1018	38	1	
4	0	0	0	0	516	506	0	1018	38	1	
5	0	0	0	0	528	508	0	1018	38	1	
6	0	0	0	0	527	509	0	1018	38	1	
7	0	0	0	0	510	508	0	1018	38	1	
8	0	0	0	0	494	506	0	1018	38	1	
9	0	0	0	0	495	504	0	1018	38	1	
10	0	0	0	0	503	504	0	1018	38	1	
11	0	0	0	0	510	505	0	1018	38	1	
12	0	0	0	0	508	504	0	1018	38	1	
13	0	0	0	0	503	505	0	1018	38	1	
14	0	0	0	0	494	506	0	1018	38	1	
15	0	0	0	0	495	508	0	1018	38	1	
0	0	0	0	0	492	510	0	1018	38	1	
1	0	0	0	0	505	508	0	1018	38	1	
2	0	0	0	0	520	508	0	1018	38	1	
3	0	0	0	0	515	509	0	1018	38	1	
4	0	0	0	0	510	509	0	1018	38	1	
5	0	0	0	0	503	509	0	1018	38	1	
6	0	0	0	0	487	509	0	1018	38	1	
7	0	0	0	0	475	508	0	1018	38	1	
8	0	0	0	0	472	510	0	1018	38	1	
9	0	0	0	0	488	508	0	1018	38	1	
10	0	0	0	0	494	507	0	1018	38	1	
11	0	0	0	0	493	506	0	1018	38	1	
12	0	0	0	0	482	505	0	1018	38	1	
13	0	0	0	0	491	505	0	1018	38	1	
14	0	0	0	0	519	507	0	1018	38	1	
15	0	0	0	0	550	507	0	1018	38	1	
0	0	0	0	0	566	506	0	1018	38	1	
1	0	0	0	0	590	505	0	1018	38	1	
2	0	0	0	0	595	505	0	1018	38	1	
3	0	0	0	0	579	506	0	1018	38	1	
4	0	0	0	0	551	506	0	1018	38	1	
5	0	0	0	0	508	507	0	1018	38	1	
6	0	0	0	0	472	508	0	1018	38	1	
7	0	0	0	0	456	508	0	1018	38	1	
8	0	0	0	0	454	506	0	1018	38	1	
9	0	0	0	0	461	507	0	1018	38	1	
10	0	0	0	0	486	506	0	1018	38	1	
11	0	0	0	0	495	505	0	1018	38	1	
12	0	0	0	0	500	505	0	1018	38	1	
13	0	0	0	0	490	504	0	1018	38	1	
14	0	0	0	0	484	505	0	1018	38	1	
15	0	0	0	0	492	507	0	1018	38	1	
0	0	0	0	0	525	509	0	1018	38	1	
1	0	0	0	0	551	509	0	1018	38	1	
2	0	0	0	0	550	509	0	1018	38	1	
3	0	0	0	0	544	510	0	1018	38	1	
4	0	0	0	0	535	510	0	1018	38	1	
5	0	0	0	0	525	508	0	1018	38	1	
6	0	0	0	0	521	508	0	1018	38	1	
7	0	0	0	0	518	508	0	1018	38	1	
8	0	0	0	0	488	509	0	1018	38	1	
9	0	0	0	0	445	508	0	1018	38	1	
10	0	0	0	0	480	508	0	1018	38	1	
11	0	0	0	0	525	508	0	600	38	1	
12	0	0	0	0	510	506	0	239	38	1	
13	0	0	0	0	491	506	0	7	38	1	
14	0	0	0	0	488	505	0	0	38	1	
15	0	0	0	0	495	506	0	120	38	1	
0	0	0	0	0	490	507	0	275	38	1	
1	0	0	0	0	488	508	0	348	38	1	
2	0	0	0	0	492	508	0	112	38	1	
3	0	0	0	0	503	508	0	0	38	1	
4	0	0	0	0	513	507	0	0	38	1	
5	0	0	0	0	518	506	0	0	38	1	
6	0	0	0	0	525	507	0	0	38	1	
7	0	0	0	0	535	505	0	0	38	1	
8	0	0	0	0	524	504	0	0	38	1	
9	0	0	0	0	526	505	0	0	38	1	
10	0	0	0	0	548	505	0	0	38	1	
11	0	0	0	0	544	504	0	0	38	1	
12	0	0	0	0	526	505	0	0	38	1	
13	0	0	0	0	497	505	0	0	38	1	
14	0	0	0	0	474	505	0	0	38	1	
15	0	0	0	0	490	505	0	0	38	1	
0	0	0	0	0	491	507	0	0	38	1	
1	0	0	0	0	499	508	0	0	38	1	
2	0	0	0	0	511	508	0	0	38	1	
3	0	0	0	0	523	508	0	0	38	1	
4	0	0	0	0	519	508	0	0	38	1	
5	0	0	0	0	518	509	0	0	38	1	
6	0	0	0	0	510	510	0	0	38	1	
7	0	0	0	0	512	510	0	0	38	1	
8	0	0	0	0	508	510	0	0	38	1	
9	0	0	0	0	505	510	0	0	38	1	
10	0	0	0	0	508	510	0	0	38	1	
11	0	0	0	0	507	510	0	0	38	1	
12	0	0	0	0	487	509	0	0	38	1	
13	0	0	0	0	498	507	0	0	38	1	
14	0	0	0	0	513	505	0	0	38	1	
15	0	0	0	0	512	505	0	0	38	1	
0	0	0	0	0	538	507	0	0	38	1	
1	0	0	0	0	556	507	0	0	38	1	
2	0	0	0	0	542	508	0	0	38	1	
3	0	0	0	0	523	508	0	0	38	1	
4	0	0	0	0	516	508	0	0	38	1	
5	0	0	0	0	492	510	0	0	38	1	
6	0	0	0	0	465	511	0	0	38	1	
7	0	0	0	0	486	509	0	0	38	1	
8	0	0	0	0	480	511	0	0	38	1	
9	0	0	0	0	456	510	0	0	38	1	
10	0	0	0	0	462	508	0	0	38	1	
11	0	0	0	0	509	505	0	0	38	1	
12	0	0	0	0	529	507	0	0	38	1	
13	0	0	0	0	531	506	0	579	38	1	
14	0	0	0	0	556	506	0	1018	38	1	
15	0	0	0	0	572	506	0	1018	38	1	
0	0	0	0	0	560	507	0	1018	38	1	
1	0	0	0	0	532	507	0	1018	38	1	
2	0	0	0	0	492	509	0	1018	38	1	
3	0	0	0	0	461	510	0	1018	38	1	
4	0	0	0	0	441	509	0	1018	38	1	
5	0	0	0	0	449	509	0	1018	38	1	
6	0	0	0	0	473	509	0	1018	38	1	
7	0	0	0	0	516	509	0	1018	38	1	
8	0	0	0	0	532	509	0	1018	38	1	
9	0	0	0	0	522	509	0	1018	38	1	
10	0	0	0	0	511	508	0	1018	38	1	
11	0	0	0	0	511	507	0	1018	38	1	
12	0	0	0	0	504	507	0	1017	38	1	
13	0	0	0	0	510	504	0	1018	38	1	
14	0	0	0	0	509	504	0	1018	38	1	
15	0	0	0	0	482	503	0	1018	38	1	
0	0	0	0	0	495	504	0	1018	38	1	
1	0	0	0	0	520	507	0	1018	38	1	
2	0	0	0	0	539	508	0	1018	38	1	
3	0	0	0	0	527	511	0	1018	38	1	
4	0	0	0	0	519	511	0	1018	38	1	
5	0	0	0	0	534	509	0	1018	38	1	
6	0	0	0	0	528	510	0	1018	38	1	
7	0	0	0	0	507	508	0	1018	38	1	
8	0	0	0	0	499	509	0	1018	38	1	
9	0	0	0	0	497	507	0	1018	38	1	
10	0	0	0	0	494	506	0	1018	38	1	
11	0	0	0	0	506	506	0	1018	38	1	
12	0	0	0	0	514	508	0	1018	38	1	
13	0	0	0	0	503	508	0	1018	38	1	
14	0	0	0	0	500	509	0	1018	38	1	
15	0	0	0	0	485	509	0	1018	38	1	
0	0	0	0	0	477	506	0	1017	38	1	
1	0	0	0	0	515	504	0	1018	38	1	
2	0	0	0	0	547	504	0	1018	38	1	
3	0	0	0	0	545	505	0	1018	38	1	
4	0	0	0	0	527	504	0	1018	38	1	
5	0	0	0	0	519	507	0	1018	38	1	
6	0	0	0	0	502	507	0	1018	38	1	
7	0	0	0	0	507	508	0	1017	38	1	
8	0	0	0	0	496	510	0	1017	38	1	
9	0	0	0	0	487	508	0	581	38	1	
10	0	0	0	0	496	509	0	55	38	1	
11	0	0	0	0	524	510	0	0	38	1	
12	0	0	0	0	524	510	0	0	38	1	
13	0	0	0	0	531	509	0	0	38	1	
14	0	0	0	0	539	507	0	0	38	1	
15	0	0	0	0	508	507	0	0	38	1	
0	0	0	0	0	487	506	0	0	38	1	
1	0	0	0	0	501	507	0	0	38	1	
2	0	0	0	0	519	508	0	0	38	1	
3	0	0	0	0	520	509	0	0	38	1	
4	0	0	0	0	519	508	0	0	38	1	
5	0	0	0	0	514	508	0	0	38	1	
6	0	0	0	0	510	508	0	0	38	1	
7	0	0	0	0	508	508	0	0	38	1	
8	0	0	0	0	498	506	0	0	38	1	
9	0	0	0	0	497	507	0	0	38	1	
10	0	0	0	0	504	508	0	0	38	1	
11	0	0	0	0	505	508	0	0	38	1	
12	0	0	0	0	518	508	0	0	38	1	
13	0	0	0	0	521	508	0	0	38	1	
14	0	0	0	0	513	507	0	0	38	1	
15	0	0	0	0	495	507	0	0	38	1	
0	0	0	0	0	495	505	0	0	38	1	
1	0	0	0	0	508	503	0	377	38	1	
2	0	0	0	0	502	503	0	822	38	1	
3	0	0	0	0	500	504	0	1018	38	1	
4	0	0	0	0	504	504	0	1018	38	1	
5	0	0	0	0	521	506	0	1018	38	1	
6	0	0	0	0	537	508	0	1017	38	1	
7	0	0	0	0	526	510	0	831	38	1	
8	0	0	0	0	520	511	0	479	38	1	
9	0	0	0	0	513	510	0	22	38	1	
10	0	0	0	0	495	510	0	0	38	1	
11	0	0	0	0	491	507	0	0	38	1	
12	0	0	0	0	517	506	0	0	38	1	
13	0	0	0	0	510	507	0	0	38	1	
14	0	0	0	0	497	507	0	0	38	1	
15	0	0	0	0	494	507	0	0	38	1	
0	0	0	0	0	487	506	0	0	38	1	
1	0	0	0	0	462	505	0	0	38	1	
2	0	0	0	0	476	505	0	0	38	1	
3	0	0	0	0	503	505	0	0	38	1	
4	0	0	0	0	532	508	0	0	38	1	
5	0	0	0	0	558	509	0	572	38	1	
6	0	0	0	0	546	511	0	1018	38	1	
7	0	0	0	0	531	512	0	1018	38	1	
8	0	0	0	0	540	512	0	1018	38	1	
9	0	0	0	0	526	512	0	1018	38	1	
10	0	0	0	0	470	512	0	1017	38	1	
11	0	0	0	0	458	511	0	760	38	1	
12	0	0	0	0	484	511	0	509	38	1	
13	0	0	0	0	505	512	0	291	38	1	
14	0	0	0	0	529	512	0	0	38	1	
15	0	0	0	0	529	508	0	0	38	1	
0	0	0	0	0	527	507	0	0	38	1	
1	0	0	0	0	539	507	0	0	38	1	
2	0	0	0	0	561	507	0	0	38	1	
3	0	0	0	0	551	507	0	0	38	1	
4	0	0	0	0	524	507	0	464	38	1	
5	0	0	0	0	505	508	0	800	38	1	
6	0	0	0	0	484	509	0	998	38	1	
7	0	0	0	0	439	508	0	1018	38	1	
8	0	0	0	0	410	508	0	1017	38	1	
9	0	0	0	0	417	508	0	858	38	1	
10	0	0	0	0	447	507	0	442	38	1	
11	0	0	0	0	500	506	0	0	38	1	
12	0	0	0	0	531	506	0	0	38	1	
13	0	0	0	0	529	508	0	0	38	1	
14	0	0	0	0	524	508	0	0	38	1	
15	0	0	0	0	500	509	0	0	38	1	
0	0	0	0	0	506	509	0	0	38	1	
1	0	0	0	0	534	508	0	0	38	1	
2	0	0	0	0	540	507	0	0	38	1	
3	0	0	0	0	534	507	0	0	38	1	
4	0	0	0	0	530	508	0	0	38	1	
5	0	0	0	0	511	508	0	0	38	1	
6	0	0	0	0	504	509	0	0	38	1	
7	0	0	0	0	514	510	0	0	38	1	
8	0	0	0	0	527	509	0	0	38	1	
9	0	0	0	0	530	509	0	0	38	1	
10	0	0	0	0	527	510	0	0	38	1	
11	0	0	0	0	532	509	0	0	38	1	
12	0	0	0	0	523	510	0	0	38	1	
13	0	0	0	0	519	511	0	0	38	1	
14	0	0	0	0	521	510	0	0	38	1	
15	0	0	0	0	513	509	0	0	38	1	
0	0	0	0	0	507	508	0	0	38	1	
1	0	0	0	0	497	507	0	0	38	1	
2	0	0	0	0	480	505	0	0	38	1	
3	0	0	0	0	478	505	0	0	38	1	
4	0	0	0	0	492	505	0	0	38	1	
5	0	0	0	0	509	504	0	0	38	1	
6	0	0	0	0	515	505	0	0	38	1	
7	0	0	0	0	498	507	0	0	38	1	
8	0	0	0	0	513	508	0	0	38	1	
9	0	0	0	0	528	511	0	0	38	1	
10	0	0	0	0	543	511	0	0	38	1	
11	0	0	0	0	531	510	0	0	38	1	
12	0	0	0	0	501	510	0	0	38	1	
13	0	0	0	0	499	508	0	0	38	1	
14	0	0	0	0	506	508	0	0	38	1	
15	0	0	0	0	483	508	0	0	38	1	
0	0	0	0	0	487	507	0	0	38	1	
1	0	0	0	0	501	506	0	0	38	1	
2	0	0	0	0	516	507	0	0	38	1	
3	0	0	0	0	510	506	0	0	38	1	
4	0	0	0	0	510	505	0	0	38	1	
5	0	0	0	0	518	506	0	0	38	1	
6	0	0	0	0	514	504	0	0	38	1	
7	0	0	0	0	507	508	0	0	38	1	
8	0	0	0	0	491	509	0	0	38	1	
9	0	0	0	0	492	510	0	0	38	1	
10	0	0	0	0	528	510	0	0	38	1	
11	0	0	0	0	553	509	0	0	38	1	
12	0	0	0	0	540	509	0	0	38	1	
13	0	0	0	0	537	510	0	0	38	1	
14	0	0	0	0	542	510	0	0	38	1	
15	0	0	0	0	514	511	0	0	38	1	
0	0	0	0	0	476	510	0	0	38	1	
1	0	0	0	0	448	508	0	0	38	1	
2	0	0	0	0	445	508	0	0	38	1	
3	0	0	0	0	487	509	0	0	38	1	
4	0	0	0	0	518	509	0	0	38	1	
5	0	0	0	0	540	508	0	0	38	1	
6	0	0	0	0	552	508	0	0	38	1	
7	0	0	0	0	528	508	0	0	38	1	
8	0	0	0	0	475	511	0	0	38	1	
9	0	0	0	0	443	512	0	0	38	1	
10	0	0	0	0	453	513	0	0	38	1	
11	0	0	0	0	471	513	0	0	38	1	
12	0	0	0	0	492	513	0	0	38	1	
13	0	0	0	0	536	514	0	0	38	1	
14	0	0	0	0	550	511	0	0	38	1	
15	0	0	0	0	523	511	0	0	38	1	
0	0	0	0	0	512	510	0	0	38	1	
1	0	0	0	0	528	509	0	0	38	1	
2	0	0	0	0	556	509	0	0	38	1	
3	0	0	0	0	527	508	0	0	38	1	
4	0	0	0	0	498	507	0	327	38	1	
5	0	0	0	0	478	507	0	768	38	1	
6	0	0	0	0	480	507	0	1018	38	1	
7	0	0	0	0	519	508	0	1018	38	1	
8	0	0	0	0	531	508	0	1018	38	1	
9	0	0	0	0	515	508	0	1018	38	1	
10	0	0	0	0	483	510	0	1018	38	1	
11	0	0	0	0	468	509	0	1018	38	1	
12	0	0	0	0	488	511	0	1018	38	1	
13	0	0	0	0	528	512	0	1018	38	1	
14	0	0	0	0	550	510	0	1018	38	1	
15	0	0	0	0	546	510	0	1018	38	1	
0	0	0	0	0	500	510	0	1018	38	1	
1	0	0	0	0	484	509	0	1018	38	1	
2	0	0	0	0	486	510	0	1018	38	1	
3	0	0	0	0	506	508	0	1018	38	1	
4	0	0	0	0	526	505	0	1018	38	1	
5	0	0	0	0	535	504	0	1018	38	1	
6	0	0	0	0	544	504	0	1018	38	1	
7	0	0	0	0	529	505	0	1018	38	1	
8	0	0	0	0	513	504	0	1018	38	1	
9	0	0	0	0	514	506	0	1018	38	1	
10	0	0	0	0	512	508	0	1018	38	1	
11	0	0	0	0	486	508	0	1018	38	1	
12	0	0	0	0	471	508	0	1018	38	1	
13	0	0	0	0	476	508	0	1018	38	1	
14	0	0	0	0	494	507	0	1018	38	1	
15	0	0	0	0	517	507	0	1018	38	1	
0	0	0	0	0	536	508	0	1018	38	1	
1	0	0	0	0	537	509	0	1018	38	1	
2	0	0	0	0	535	508	0	1018	38	1	
3	0	0	0	0	526	507	0	1018	38	1	
4	0	0	0	0	520	507	0	1018	38	1	
5	0	0	0	0	512	506	0	1018	38	1	
6	0	0	0	0	524	506	0	1018	38	1	
7	0	0	0	0	527	505	0	1018	38	1	
8	0	0	0	0	521	503	0	1018	38	1	
9	0	0	0	0	510	504	0	1018	38	1	
10	0	0	0	0	483	505	0	1018	38	1	
11	0	0	0	0	478	509	0	1018	38	1	
12	0	0	0	0	468	507	0	1018	38	1	
13	0	0	0	0	485	507	0	1018	38	1	
14	0	0	0	0	501	509	0	1018	38	1	
15	0	0	0	0	496	509	0	1018	38	1	
0	0	0	0	0	507	510	0	1018	38	1	
1	0	0	0	0	510	508	0	1018	38	1	
2	0	0	0	0	503	511	0	1017	38	1	
3	0	0	0	0	520	512	0	441	38	1	
4	0	0	0	0	517	512	0	0	38	1	
5	0	0	0	0	513	511	0	0	38	1	
6	0	0	0	0	549	509	0	0	38	1	
7	0	0	0	0	550	508	0	0	38	1	
8	0	0	0	0	566	508	0	152	38	1	
9	0	0	0	0	574	509	0	462	38	1	
10	0	0	0	0	532	509	0	599	38	1	
11	0	0	0	0	454	511	0	721	38	1	
12	0	0	0	0	388	511	0	718	38	1	
13	0	0	0	0	414	511	0	554	38	1	
14	0	0	0	0	451	511	0	312	38	1	
15	0	0	0	0	457	510	0	120	38	1	
0	0	0	0	0	502	509	0	0	38	1	
1	0	0	0	0	549	510	0	0	38	1	
2	0	0	0	0	560	509	0	0	38	1	
3	0	0	0	0	568	508	0	0	38	1	
4	0	0	0	0	527	508	0	0	38	1	
5	0	0	0	0	496	508	0	0	38	1	
6	0	0	0	0	500	507	0	0	38	1	
7	0	0	0	0	524	506	0	0	38	1	
8	0	0	0	0	540	504	0	0	38	1	
9	0	0	0	0	540	504	0	0	38	1	
10	0	0	0	0	541	507	0	0	38	1	
11	0	0	0	0	543	505	0	366	38	1	
12	0	0	0	0	521	507	0	661	38	1	
13	0	0	0	0	499	507	0	927	38	1	
14	0	0	0	0	467	509	0	1017	38	1	
15	0	0	0	0	456	508	0	1018	38	1	
0	0	0	0	0	459	510	0	1018	38	1	
1	0	0	0	0	472	508	0	1017	38	1	
2	0	0	0	0	493	509	0	1018	38	1	
3	0	0	0	0	520	507	0	1018	38	1	
4	0	0	0	0	539	506	0	1018	38	1	
5	0	0	0	0	547	503	0	1018	38	1	
6	0	0	0	0	533	504	0	1018	38	1	
7	0	0	0	0	500	504	0	1018	38	1	
8	0	0	0	0	492	504	0	1018	38	1	
9	0	0	0	0	461	506	0	1018	38	1	
10	0	0	0	0	434	507	0	1018	38	1	
11	0	0	0	0	460	507	0	1018	38	1	
12	0	0	0	0	509	509	0	1018	38	1	
13	0	0	0	0	534	511	0	1018	38	1	
14	0	0	0	0	551	509	0	1018	38	1	
15	0	0	0	0	552	510	0	1018	38	1	
0	0	0	0	0	544	510	0	1018	38	1	
1	0	0	0	0	543	507	0	1018	38	1	
2	0	0	0	0	521	508	0	1018	38	1	
3	0	0	0	0	511	507	0	1018	38	1	
4	0	0	0	0	489	508	0	1017	38	1	
5	0	0	0	0	480	509	0	1018	38	1	
6	0	0	0	0	516	507	0	1018	38	1	
7	0	0	0	0	545	508	0	1018	38	1	
8	0	0	0	0	533	507	0	1018	38	1	
9	0	0	0	0	494	509	0	1018	38	1	
10	0	0	0	0	487	508	0	1018	38	1	
11	0	0	0	0	482	508	0	1018	38	1	
12	0	0	0	0	489	509	0	1018	38	1	
13	0	0	0	0	497	508	0	1018	38	1	
14	0	0	0	0	526	507	0	1018	38	1	
15	0	0	0	0	523	509	0	1018	38	1	
0	0	0	0	0	511	511	0	1018	38	1	
1	0	0	0	0	522	513	0	1018	38	1	
2	0	0	0	0	523	513	0	1018	38	1	
3	0	0	0	0	533	513	0	1018	38	1	
4	0	0	0	0	530	512	0	1018	38	1	
5	0	0	0	0	531	512	0	688	38	1	
6	0	0	0	0	527	510	0	384	38	1	
7	0	0	0	0	526	508	0	178	38	1	
8	0	0	0	0	520	508	0	0	38	1	
9	0	0	0	0	522	508	0	0	38	1	
10	0	0	0	0	507	505	0	0	38	1	
11	0	0	0	0	488	505	0	0	38	1	
12	0	0	0	0	476	505	0	307	38	1	
13	0	0	0	0	475	505	0	579	38	1	
14	0	0	0	0	479	508	0	736	38	1	
15	0	0	0	0	486	509	0	701	38	1	
0	0	0	0	0	499	511	0	597	38	1	
1	0	0	0	0	500	509	0	296	38	1	
2	0	0	0	0	511	512	0	0	38	1	
3	0	0	0	0	519	511	0	0	38	1	
4	0	0	0	0	517	510	0	0	38	1	
5	0	0	0	0	528	510	0	0	38	1	
6	0	0	0	0	522	508	0	0	38	1	
7	0	0	0	0	522	508	0	0	38	1	
8	0	0	0	0	523	509	0	0	38	1	
9	0	0	0	0	529	509	0	0	38	1	
10	0	0	0	0	532	508	0	0	38	1	
11	0	0	0	0	517	506	0	0	38	1	
12	0	0	0	0	519	506	0	0	38	1	
13	0	0	0	0	523	508	0	0	38	1	
14	0	0	0	0	510	509	0	0	38	1	
15	0	0	0	0	489	511	0	0	38	1	
0	0	0	0	0	475	509	0	0	38	1	
1	0	0	0	0	446	508	0	0	38	1	
2	0	0	0	0	452	510	0	0	38	1	
3	0	0	0	0	470	510	0	0	38	1	
4	0	0	0	0	494	509	0	0	38	1	
5	0	0	0	0	531	509	0	0	38	1	
6	0	0	0	0	523	506	0	0	38	1	
7	0	0	0	0	522	507	0	0	38	1	
8	0	0	0	0	526	508	0	0	38	1	
9	0	0	0	0	510	507	0	0	38	1	
10	0	0	0	0	483	505	0	0	38	1	
11	0	0	0	0	474	507	0	0	38	1	
12	0	0	0	0	532	505	0	0	38	1	
13	0	0	0	0	551	507	0	0	38	1	
14	0	0	0	0	529	507	0	0	38	1	
15	0	0	0	0	515	507	0	0	38	1	
0	0	0	0	0	509	510	0	0	38	1	
1	0	0	0	0	488	509	0	0	38	1	
2	0	0	0	0	486	507	0	0	38	1	
3	0	0	0	0	513	508	0	0	38	1	
4	0	0	0	0	513	506	0	0	38	1	
5	0	0	0	0	495	505	0	0	38	1	
6	0	0	0	0	490	506	0	0	38	1	
7	0	0	0	0	502	507	0	0	38	1	
8	0	0	0	0	517	507	0	0	38	1	
9	0	0	0	0	531	507	0	0	38	1	
10	0	0	0	0	516	506	0	0	38	1	
11	0	0	0	0	492	505	0	0	38	1	
12	0	0	0	0	492	506	0	0	38	1	
13	0	0	0	0	512	505	0	0	38	1	
14	0	0	0	0	520	503	0	0	38	1	
15	0	0	0	0	524	505	0	0	38	1	
0	0	0	0	0	543	508	0	0	38	1	
1	0	0	0	0	562	508	0	0	38	1	
2	0	0	0	0	536	508	0	0	38	1	
3	0	0	0	0	518	509	0	0	38	1	
4	0	0	0	0	487	509	0	0	38	1	
5	0	0	0	0	499	508	0	0	38	1	
6	0	0	0	0	503	508	0	0	38	1	
7	0	0	0	0	496	508	0	0	38	1	
8	0	0	0	0	498	508	0	0	38	1	
9	0	0	0	0	508	508	0	0	38	1	
10	0	0	0	0	511	506	0	0	38	1	
11	0	0	0	0	493	508	0	0	38	1	
12	0	0	0	0	496	507	0	0	38	1	
13	0	0	0	0	515	504	0	0	38	1	
14	0	0	0	0	517	502	0	0	38	1	
15	0	0	0	0	505	505	0	0	38	1	
0	0	0	0	0	496	508	0	554	38	1	
1	0	0	0	0	497	510	0	1018	38	1	
2	0	0	0	0	491	511	0	1018	38	1	
3	0	0	0	0	494	510	0	1018	38	1	
4	0	0	0	0	496	511	0	1018	38	1	
5	0	0	0	0	498	511	0	1018	38	1	
6	0	0	0	0	519	512	0	1018	38	1	
7	0	0	0	0	516	512	0	1018	38	1	
8	0	0	0	0	517	512	0	1018	38	1	
9	0	0	0	0	507	512	0	1018	38	1	
10	0	0	0	0	524	511	0	1018	38	1	
11	0	0	0	0	535	511	0	1018	38	1	
12	0	0	0	0	532	508	0	1018	38	1	
13	0	0	0	0	516	507	0	1018	38	1	
14	0	0	0	0	507	507	0	1018	38	1	
15	0	0	0	0	502	507	0	1018	38	1	
0	0	0	0	0	496	507	0	1018	38	1	
1	0	0	0	0	512	505	0	1018	38	1	
2	0	0	0	0	529	507	0	1018	38	1	
3	0	0	0	0	533	508	0	1018	38	1	
4	0	0	0	0	518	508	0	1018	38	1	
5	0	0	0	0	516	508	0	1018	38	1	
6	0	0	0	0	519	507	0	1018	38	1	
7	0	0	0	0	528	507	0	1018	38	1	
8	0	0	0	0	538	508	0	1018	38	1	
9	0	0	0	0	543	508	0	1018	38	1	
10	0	0	0	0	541	507	0	1018	38	1	
11	0	0	0	0	528	507	0	1018	38	1	
12	0	0	0	0	510	507	0	1018	38	1	
13	0	0	0	0	495	505	0	1018	38	1	
14	0	0	0	0	453	504	0	1018	38	1	
15	0	0	0	0	457	505	0	1018	38	1	
0	0	0	0	0	483	506	0	1018	38	1	
1	0	0	0	0	491	508	0	1018	38	1	
2	0	0	0	0	472	510	0	1018	38	1	
3	0	0	0	0	481	509	0	1018	38	1	
4	0	0	0	0	500	510	0	1018	38	1	
5	0	0	0	0	500	509	0	1018	38	1	
6	0	0	0	0	495	505	0	1018	38	1	
7	0	0	0	0	490	507	0	1018	38	1	
8	0	0	0	0	520	506	0	1018	38	1	
9	0	0	0	0	522	507	0	1018	38	1	
10	0	0	0	0	532	507	0	1018	38	1	
11	0	0	0	0	513	507	0	1018	38	1	
12	0	0	0	0	487	507	0	1018	38	1	
13	0	0	0	0	479	507	0	1018	38	1	
14	0	0	0	0	489	507	0	1018	38	1	
15	0	0	0	0	505	505	0	1018	38	1	
0	0	0	0	0	527	505	0	1018	38	1	
1	0	0	0	0	526	505	0	1018	38	1	
2	0	0	0	0	527	505	0	1018	38	1	
3	0	0	0	0	543	507	0	1018	38	1	
4	0	0	0	0	547	508	0	1018	38	1	
5	0	0	0	0	541	508	0	1018	38	1	
6	0	0	0	0	521	508	0	1018	38	1	
7	0	0	0	0	501	508	0	1018	38	1	
8	0	0	0	0	487	508	0	1018	38	1	
9	0	0	0	0	473	509	0	1018	38	1	
10	0	0	0	0	486	510	0	1018	38	1	
11	0	0	0	0	508	511	0	1018	38	1	
12	0	0	0	0	534	510	0	1018	38	1	
13	0	0	0	0	535	508	0	1017	38	1	
14	0	0	0	0	510	506	0	1017	38	1	
15	0	0	0	0	487	504	0	1017	38	1	
0	0	0	0	0	479	504	0	1018	38	1	
1	0	0	0	0	524	506	0	1018	38	1	
2	0	0	0	0	540	508	0	1018	38	1	
3	0	0	0	0	516	508	0	1018	38	1	
4	0	0	0	0	499	510	0	1018	38	1	
5	0	0	0	0	494	511	0	1018	38	1	
6	0	0	0	0	476	510	0	1018	38	1	
7	0	0	0	0	499	510	0	1018	38	1	
8	0	0	0	0	517	510	0	1018	38	1	
9	0	0	0	0	534	509	0	1018	38	1	
10	0	0	0	0	539	510	0	1018	38	1	
11	0	0	0	0	512	510	0	1018	38	1	
12	0	0	0	0	488	509	0	1018	38	1	
13	0	0	0	0	519	508	0	1017	38	1	
14	0	0	0	0	521	507	0	792	38	1	
15	0	0	0	0	526	506	0	812	38	1	
0	0	0	0	0	510	506	0	970	38	1	
1	0	0	0	0	509	507	0	1018	38	1	
2	0	0	0	0	514	504	0	1018	38	1	
3	0	0	0	0	501	504	0	1018	38	1	
4	0	0	0	0	503	506	0	1018	38	1	
5	0	0	0	0	512	506	0	1018	38	1	
6	0	0	0	0	507	506	0	1018	38	1	
7	0	0	0	0	492	507	0	1018	38	1	
8	0	0	0	0	498	507	0	1018	38	1	
9	0	0	0	0	515	507	0	639	38	1	
10	0	0	0	0	521	505	0	42	38	1	
11	0	0	0	0	504	508	0	0	38	1	
12	0	0	0	0	502	507	0	0	38	1	
13	0	0	0	0	504	506	0	0	38	1	
14	0	0	0	0	489	505	0	0	38	1	
15	0	0	0	0	498	506	0	0	38	1	
0	0	0	0	0	500	505	0	0	38	1	
1	0	0	0	0	492	504	0	0	38	1	
2	0	0	0	0	505	504	0	0	38	1	
3	0	0	0	0	513	505	0	0	38	1	
4	0	0	0	0	526	506	0	0	38	1	
5	0	0	0	0	531	507	0	0	38	1	
6	0	0	0	0	493	508	0	0	38	1	
7	0	0	0	0	477	508	0	0	38	1	
8	0	0	0	0	502	509	0	0	38	1	
9	0	0	0	0	529	510	0	0	38	1	
10	0	0	0	0	555	510	0	0	38	1	
11	0	0	0	0	572	508	0	0	38	1	
12	0	0	0	0	574	510	0	0	38	1	
13	0	0	0	0	555	509	0	0	38	1	
14	0	0	0	0	541	507	0	0	38	1	
15	0	0	0	0	512	507	0	0	38	1	
0	0	0	0	0	450	505	0	0	38	1	
1	0	0	0	0	406	504	0	0	38	1	
2	0	0	0	0	414	504	0	0	38	1	
3	0	0	0	0	474	504	0	0	38	1	
4	0	0	0	0	506	504	0	0	38	1	
5	0	0	0	0	502	503	0	0	38	1	
6	0	0	0	0	504	506	0	0	38	1	
7	0	0	0	0	549	506	0	0	38	1	
8	0	0	0	0	538	507	0	0	38	1	
9	0	0	0	0	516	506	0	0	38	1	
10	0	0	0	0	514	506	0	0	38	1	
11	0	0	0	0	504	506	0	0	38	1	
12	0	0	0	0	485	506	0	0	38	1	
13	0	0	0	0	481	505	0	0	38	1	
14	0	0	0	0	507	506	0	0	38	1	
15	0	0	0	0	523	505	0	0	38	1	
0	0	0	0	0	524	505	0	0	38	1	
1	0	0	0	0	524	505	0	0	38	1	
2	0	0	0	0	541	504	0	0	38	1	
3	0	0	0	0	528	505	0	0	38	1	
4	0	0	0	0	521	506	0	0	38	1	
5	0	0	0	0	528	508	0	0	38	1	
6	0	0	0	0	529	508	0	0	38	1	
7	0	0	0	0	501	507	0	0	38	1	
8	0	0	0	0	503	507	0	0	38	1	
9	0	0	0	0	515	508	0	0	38	1	
10	0	0	0	0	510	507	0	0	38	1	
11	0	0	0	0	494	507	0	0	38	1	
12	0	0	0	0	487	506	0	0	38	1	
13	0	0	0	0	481	508	0	0	38	1	
14	0	0	0	0	483	508	0	0	38	1	
15	0	0	0	0	498	506	0	0	38	1	
0	0	0	0	0	528	504	0	0	38	1	
1	0	0	0	0	513	505	0	0	38	1	
2	0	0	0	0	504	504	0	0	38	1	
3	0	0	0	0	487	503	0	0	38	1	
4	0	0	0	0	485	503	0	0	38	1	
5	0	0	0	0	496	504	0	0	38	1	
6	0	0	0	0	507	505	0	0	38	1	
7	0	0	0	0	523	505	0	0	38	1	
8	0	0	0	0	523	507	0	0	38	1	
9	0	0	0	0	530	510	0	0	38	1	
10	0	0	0	0	521	509	0	0	38	1	
11	0	0	0	0	502	508	0	0	38	1	
12	0	0	0	0	483	510	0	0	38	1	
13	0	0	0	0	485	508	0	0	38	1	
14	0	0	0	0	503	507	0	0	38	1	
15	0	0	0	0	520	507	0	0	38	1	
0	0	0	0	0	537	504	0	0	38	1	
1	0	0	0	0	522	504	0	0	38	1	
2	0	0	0	0	523	502	0	0	38	1	
3	0	0	0	0	519	500	0	0	38	1	
4	0	0	0	0	518	500	0	0	38	1	
5	0	0	0	0	518	502	0	0	38	1	
6	0	0	0	0	524	504	0	0	38	1	
7	0	0	0	0	517	505	0	0	38	1	
8	0	0	0	0	524	507	0	0	38	1	
9	0	0	0	0	536	507	0	0	38	1	
10	0	0	0	0	537	506	0	0	38	1	
11	0	0	0	0	531	507	0	0	38	1	
12	0	0	0	0	502	505	0	0	38	1	
13	0	0	0	0	482	507	0	0	38	1	
14	0	0	0	0	474	507	0	0	38	1	
15	0	0	0	0	462	508	0	0	38	1	
0	0	0	0	0	468	509	0	0	38	1	
1	0	0	0	0	509	508	0	0	38	1	
2	0	0	0	0	492	507	0	0	38	1	
3	0	0	0	0	474	507	0	0	38	1	
4	0	0	0	0	492	505	0	0	38	1	
5	0	0	0	0	515	504	0	0	38	1	
6	0	0	0	0	540	505	0	0	38	1	
7	0	0	0	0	527	507	0	0	38	1	
8	0	0	0	0	503	507	0	0	38	1	
9	0	0	0	0	507	509	0	217	38	1	
10	0	0	0	0	543	510	0	497	38	1	
11	0	0	0	0	542	510	0	726	38	1	
12	0	0	0	0	526	508	0	932	38	1	
13	0	0	0	0	511	508	0	1018	38	1	
14	0	0	0	0	504	508	0	1018	38	1	
15	0	0	0	0	501	509	0	1018	38	1	
0	0	0	0	0	496	507	0	1018	38	1	
1	0	0	0	0	519	505	0	1018	38	1	
2	0	0	0	0	527	505	0	1018	38	1	
3	0	0	0	0	521	507	0	1018	38	1	
4	0	0	0	0	536	505	0	1018	38	1	
5	0	0	0	0	547	503	0	1018	38	1	
6	0	0	0	0	527	504	0	1018	38	1	
7	0	0	0	0	516	504	0	1018	38	1	
8	0	0	0	0	505	504	0	1018	38	1	
9	0	0	0	0	467	506	0	1018	38	1	
10	0	0	0	0	449	507	0	1018	38	1	
11	0	0	0	0	451	508	0	1017	38	1	
12	0	0	0	0	456	508	0	418	38	1	
13	0	0	0	0	480	505	0	0	38	1	
14	0	0	0	0	486	505	0	0	38	1	
15	0	0	0	0	497	505	0	0	38	1	
0	0	0	0	0	526	506	0	0	38	1	
1	0	0	0	0	528	505	0	0	38	1	
2	0	0	0	0	525	507	0	0	38	1	
3	0	0	0	0	533	508	0	0	38	1	
4	0	0	0	0	529	506	0	0	38	1	
5	0	0	0	0	522	504	0	0	38	1	
6	0	0	0	0	517	504	0	0	38	1	
7	0	0	0	0	516	505	0	0	38	1	
8	0	0	0	0	521	506	0	0	38	1	
9	0	0	0	0	497	508	0	0	38	1	
10	0	0	0	0	479	508	0	0	38	1	
11	0	0	0	0	465	508	0	0	38	1	
12	0	0	0	0	503	507	0	0	38	1	
13	0	0	0	0	524	507	0	0	38	1	
14	0	0	0	0	514	507	0	0	38	1	
15	0	0	0	0	504	507	0	0	38	1	
0	0	0	0	0	506	508	0	0	38	1	
1	0	0	0	0	517	509	0	0	38	1	
2	0	0	0	0	537	508	0	0	38	1	
3	0	0	0	0	521	508	0	0	38	1	
4	0	0	0	0	523	509	0	0	38	1	
5	0	0	0	0	525	507	0	0	38	1	
6	0	0	0	0	518	507	0	0	38	1	
7	0	0	0	0	504	508	0	0	38	1	
8	0	0	0	0	491	507	0	0	38	1	
9	0	0	0	0	491	507	0	397	38	1	
10	0	0	0	0	506	507	0	698	38	1	
11	0	0	0	0	529	508	0	953	38	1	
12	0	0	0	0	534	510	0	1017	38	1	
13	0	0	0	0	523	510	0	1018	38	1	
14	0	0	0	0	508	508	0	1018	38	1	
15	0	0	0	0	494	507	0	1018	38	1	
0	0	0	0	0	495	508	0	1018	38	1	
1	0	0	0	0	494	508	0	1018	38	1	
2	0	0	0	0	503	508	0	1018	38	1	
3	0	0	0	0	515	507	0	1018	38	1	
4	0	0	0	0	505	507	0	1018	38	1	
5	0	0	0	0	502	508	0	1018	38	1	
6	0	0	0	0	503	508	0	1018	38	1	
7	0	0	0	0	513	508	0	1018	38	1	
8	0	0	0	0	519	506	0	1018	38	1	
9	0	0	0	0	522	508	0	1018	38	1	
10	0	0	0	0	516	509	0	1018	38	1	
11	0	0	0	0	508	510	0	1018	38	1	
12	0	0	0	0	519	512	0	1018	38	1	
13	0	0	0	0	531	511	0	1018	38	1	
14	0	0	0	0	526	511	0	1018	38	1	
15	0	0	0	0	510	510	0	1018	38	1	
0	0	0	0	0	511	511	0	1018	38	1	
1	0	0	0	0	517	509	0	1018	38	1	
2	0	0	0	0	524	511	0	1018	38	1	
3	0	0	0	0	524	510	0	1018	38	1	
4	0	0	0	0	507	508	0	1018	38	1	
5	0	0	0	0	478	509	0	1018	38	1	
6	0	0	0	0	481	508	0	1018	38	1	
7	0	0	0	0	492	504	0	1018	38	1	
8	0	0	0	0	520	504	0	1018	38	1	
9	0	0	0	0	537	507	0	1018	38	1	
10	0	0	0	0	519	509	0	1018	38	1	
11	0	0	0	0	488	509	0	1018	38	1	
12	0	0	0	0	486	510	0	1018	38	1	
13	0	0	0	0	479	511	0	1018	38	1	
14	0	0	0	0	502	510	0	1018	38	1	
15	0	0	0	0	522	510	0	1018	38	1	
0	0	0	0	0	540	508	0	1018	38	1	
1	0	0	0	0	539	508	0	1018	38	1	
2	0	0	0	0	511	508	0	1018	38	1	
3	0	0	0	0	449	510	0	1018	38	1	
4	0	0	0	0	449	510	0	1018	38	1	
5	0	0	0	0	468	508	0	1018	38	1	
6	0	0	0	0	512	507	0	1018	38	1	
7	0	0	0	0	527	506	0	1018	38	1	
8	0	0	0	0	506	506	0	1018	38	1	
9	0	0	0	0	496	507	0	1018	38	1	
10	0	0	0	0	512	507	0	1018	38	1	
11	0	0	0	0	541	506	0	1018	38	1	
12	0	0	0	0	553	505	0	1018	38	1	
13	0	0	0	0	546	506	0	1018	38	1	
14	0	0	0	0	536	508	0	1018	38	1	
15	0	0	0	0	542	508	0	1018	38	1	
0	0	0	0	0	543	506	0	1018	38	1	
1	0	0	0	0	519	506	0	1018	38	1	
2	0	0	0	0	502	507	0	1018	38	1	
3	0	0	0	0	460	509	0	1018	38	1	
4	0	0	0	0	427	509	0	1018	38	1	
5	0	0	0	0	440	508	0	1018	38	1	
6	0	0	0	0	484	507	0	1018	38	1	
7	0	0	0	0	510	509	0	1018	38	1	
8	0	0	0	0	530	509	0	1018	38	1	
9	0	0	0	0	517	509	0	1018	38	1	
10	0	0	0	0	512	508	0	1018	38	1	
11	0	0	0	0	529	508	0	1018	38	1	
12	0	0	0	0	532	509	0	1018	38	1	
13	0	0	0	0	524	510	0	1018	38	1	
14	0	0	0	0	508	510	0	1018	38	1	
15	0	0	0	0	490	510	0	1018	38	1	
0	0	0	0	0	487	512	0	1018	38	1	
1	0	0	0	0	478	510	0	1018	38	1	
2	0	0	0	0	516	508	0	1018	38	1	
3	0	0	0	0	535	506	0	1018	38	1	
4	0	0	0	0	530	507	0	1018	38	1	
5	0	0	0	0	518	507	0	1018	38	1	
6	0	0	0	0	505	507	0	1018	38	1	
7	0	0	0	0	508	508	0	1018	38	1	
8	0	0	0	0	515	505	0	1018	38	1	
9	0	0	0	0	523	504	0	1018	38	1	
10	0	0	0	0	534	504	0	1018	38	1	
11	0	0	0	0	527	504	0	1018	38	1	
12	0	0	0	0	523	506	0	1017	38	1	
13	0	0	0	0	510	506	0	1018	38	1	
14	0	0	0	0	491	507	0	1018	38	1	
15	0	0	0	0	488	508	0	1018	38	1	
0	0	0	0	0	515	511	0	1018	38	1	
1	0	0	0	0	524	511	0	1018	38	1	
2	0	0	0	0	511	510	0	1018	38	1	
3	0	0	0	0	511	511	0	1018	38	1	
4	0	0	0	0	507	511	0	1018	38	1	
5	0	0	0	0	517	511	0	1018	38	1	
6	0	0	0	0	527	512	0	1018	38	1	
7	0	0	0	0	518	510	0	1018	38	1	
8	0	0	0	0	511	510	0	1018	38	1	
9	0	0	0	0	508	508	0	1018	38	1	
10	0	0	0	0	518	508	0	1018	38	1	
11	0	0	0	0	515	507	0	1018	38	1	
12	0	0	0	0	500	507	0	1018	38	1	
13	0	0	0	0	479	505	0	1018	38	1	
14	0	0	0	0	464	508	0	1018	38	1	
15	0	0	0	0	468	511	0	1018	38	1	
0	0	0	0	0	490	511	0	1018	38	1	
1	0	0	0	0	509	508	0	1018	38	1	
2	0	0	0	0	526	510	0	1018	38	1	
3	0	0	0	0	528	509	0	1018	38	1	
4	0	0	0	0	515	509	0	1018	38	1	
5	0	0	0	0	515	511	0	1018	38	1	
6	0	0	0	0	534	510	0	1018	38	1	
7	0	0	0	0	532	510	0	1018	38	1	
8	0	0	0	0	523	508	0	1018	38	1	
9	0	0	0	0	531	508	0	1018	38	1	
10	0	0	0	0	495	508	0	1017	38	1	
11	0	0	0	0	481	508	0	1018	38	1	
12	0	0	0	0	501	506	0	1017	38	1	
13	0	0	0	0	521	505	0	1018	38	1	
14	0	0	0	0	510	507	0	1018	38	1	
15	0	0	0	0	488	509	0	1018	38	1	
0	0	0	0	0	482	510	0	1018	38	1	
1	0	0	0	0	463	512	0	1018	38	1	
2	0	0	0	0	480	510	0	1018	38	1	
3	0	0	0	0	495	509	0	1018	38	1	
4	0	0	0	0	510	508	0	1017	38	1	
5	0	0	0	0	515	508	0	1017	38	1	
6	0	0	0	0	529	507	0	671	38	1	
7	0	0	0	0	563	505	0	432	38	1	
8	0	0	0	0	565	507	0	276	38	1	
9	0	0	0	0	526	508	0	283	38	1	
10	0	0	0	0	506	507	0	543	38	1	
11	0	0	0	0	505	506	0	984	38	1	
12	0	0	0	0	496	506	0	1018	38	1	
13	0	0	0	0	490	505	0	1018	38	1	
14	0	0	0	0	491	505	0	1018	38	1	
15	0	0	0	0	484	505	0	1018	38	1	
0	0	0	0	0	492	506	0	1018	38	1	
1	0	0	0	0	490	506	0	1018	38	1	
2	0	0	0	0	506	507	0	1018	38	1	
3	0	0	0	0	540	507	0	1018	38	1	
4	0	0	0	0	542	507	0	1018	38	1	
5	0	0	0	0	532	509	0	1018	38	1	
6	0	0	0	0	530	509	0	1018	38	1	
7	0	0	0	0	518	509	0	499	38	1	
8	0	0	0	0	506	509	0	81	38	1	
9	0	0	0	0	487	507	0	0	38	1	
10	0	0	0	0	491	506	0	0	38	1	
11	0	0	0	0	478	505	0	0	38	1	
12	0	0	0	0	483	505	0	0	38	1	
13	0	0	0	0	494	506	0	0	38	1	
14	0	0	0	0	484	506	0	0	38	1	
15	0	0	0	0	487	506	0	0	38	1	
0	0	0	0	0	519	507	0	0	38	1	
1	0	0	0	0	528	508	0	0	38	1	
2	0	0	0	0	539	509	0	0	38	1	
3	0	0	0	0	547	510	0	0	38	1	
4	0	0	0	0	548	509	0	0	38	1	
5	0	0	0	0	527	508	0	0	38	1	
6	0	0	0	0	511	509	0	0	38	1	
7	0	0	0	0	513	510	0	0	38	1	
8	0	0	0	0	505	508	0	0	38	1	
9	0	0	0	0	515	508	0	0	38	1	
10	0	0	0	0	520	507	0	0	38	1	
11	0	0	0	0	531	506	0	0	38	1	
12	0	0	0	0	493	505	0	0	38	1	
13	0	0	0	0	480	504	0	219	38	1	
14	0	0	0	0	491	504	0	751	38	1	
15	0	0	0	0	495	506	0	1018	38	1	
0	0	0	0	0	500	509	0	1018	38	1	
1	0	0	0	0	494	510	0	1018	38	1	
2	0	0	0	0	492	511	0	1018	38	1	
3	0	0	0	0	504	509	0	1018	38	1	
4	0	0	0	0	511	511	0	1018	38	1	
5	0	0	0	0	519	510	0	1018	38	1	
6	0	0	0	0	507	509	0	1018	38	1	
7	0	0	0	0	506	507	0	1018	38	1	
8	0	0	0	0	527	508	0	1018	38	1	
9	0	0	0	0	536	509	0	1018	38	1	
10	0	0	0	0	545	509	0	1018	38	1	
11	0	0	0	0	539	509	0	1018	38	1	
12	0	0	0	0	526	508	0	1018	38	1	
13	0	0	0	0	505	507	0	1018	38	1	
14	0	0	0	0	485	507	0	1018	38	1	
15	0	0	0	0	463	506	0	1018	38	1	
0	0	0	0	0	457	509	0	1018	38	1	
1	0	0	0	0	480	509	0	1018	38	1	
2	0	0	0	0	489	510	0	1018	38	1	
3	0	0	0	0	484	510	0	1018	38	1	
4	0	0	0	0	503	509	0	1018	38	1	
5	0	0	0	0	543	511	0	1018	38	1	
6	0	0	0	0	550	510	0	1018	38	1	
7	0	0	0	0	560	507	0	1018	38	1	
8	0	0	0	0	547	505	0	1018	38	1	
9	0	0	0	0	523	506	0	1018	38	1	
10	0	0	0	0	496	508	0	1018	38	1	
11	0	0	0	0	488	507	0	1018	38	1	
12	0	0	0	0	520	507	0	1018	38	1	
13	0	0	0	0	523	508	0	1018	38	1	
14	0	0	0	0	518	508	0	1018	38	1	
15	0	0	0	0	511	508	0	1018	38	1	
0	0	0	0	0	476	508	0	1018	38	1	
1	0	0	0	0	443	508	0	1018	38	1	
2	0	0	0	0	473	508	0	1018	38	1	
3	0	0	0	0	504	508	0	1018	38	1	
4	0	0	0	0	538	508	0	1018	38	1	
5	0	0	0	0	556	509	0	1018	38	1	
6	0	0	0	0	552	509	0	1018	38	1	
7	0	0	0	0	533	509	0	1018	38	1	
8	0	0	0	0	509	508	0	1018	38	1	
9	0	0	0	0	500	508	0	1018	38	1	
10	0	0	0	0	489	507	0	1018	38	1	
11	0	0	0	0	481	508	0	1018	38	1	
12	0	0	0	0	483	508	0	1018	38	1	
13	0	0	0	0	480	509	0	1018	38	1	
14	0	0	0	0	487	508	0	1018	38	1	
15	0	0	0	0	512	506	0	1018	38	1	
0	0	0	0	0	514	506	0	1018	38	1	
1	0	0	0	0	504	508	0	1018	38	1	
2	0	0	0	0	507	509	0	1017	38	1	
3	0	0	0	0	519	510	0	1018	38	1	
4	0	0	0	0	528	510	0	1018	38	1	
5	0	0	0	0	540	509	0	726	38	1	
6	0	0	0	0	535	508	0	195	38	1	
7	0	0	0	0	515	508	0	0	38	1	
8	0	0	0	0	485	508	0	0	38	1	
9	0	0	0	0	485	508	0	0	38	1	
10	0	0	0	0	480	507	0	0	38	1	
11	0	0	0	0	483	509	0	0	38	1	
12	0	0	0	0	514	508	0	0	38	1	
13	0	0	0	0	521	508	0	0	38	1	
14	0	0	0	0	524	507	0	0	38	1	
15	0	0	0	0	512	505	0	0	38	1	
0	0	0	0	0	496	503	0	0	38	1	
1	0	0	0	0	519	505	0	0	38	1	
2	0	0	0	0	514	507	0	0	38	1	
3	0	0	0	0	505	507	0	0	38	1	
4	0	0	0	0	517	508	0	0	38	1	
5	0	0	0	0	523	509	0	0	38	1	
6	0	0	0	0	517	509	0	0	38	1	
7	0	0	0	0	516	508	0	0	38	1	
8	0	0	0	0	517	508	0	0	38	1	
9	0	0	0	0	526	508	0	0	38	1	
10	0	0	0	0	521	507	0	0	38	1	
11	0	0	0	0	506	507	0	0	38	1	
12	0	0	0	0	518	507	0	0	38	1	
13	0	0	0	0	510	506	0	0	38	1	
14	0	0	0	0	499	506	0	0	38	1	
15	0	0	0	0	490	506	0	0	38	1	
0	0	0	0	0	488	506	0	0	38	1	
1	0	0	0	0	492	505	0	0	38	1	
2	0	0	0	0	487	505	0	0	38	1	
3	0	0	0	0	492	507	0	0	38	1	
4	0	0	0	0	507	507	0	0	38	1	
5	0	0	0	0	522	507	0	0	38	1	
6	0	0	0	0	547	508	0	0	38	1	
7	0	0	0	0	544	508	0	0	38	1	
8	0	0	0	0	518	508	0	0	38	1	
9	0	0	0	0	513	507	0	0	38	1	
10	0	0	0	0	496	508	0	0	38	1	
11	0	0	0	0	481	509	0	0	38	1	
12	0	0	0	0	496	509	0	0	38	1	
13	0	0	0	0	496	508	0	0	38	1	
14	0	0	0	0	497	508	0	0	38	1	
15	0	0	0	0	508	508	0	0	38	1	
0	0	0	0	0	519	507	0	0	38	1	
1	0	0	0	0	512	505	0	0	38	1	
2	0	0	0	0	508	505	0	0	38	1	
3	0	0	0	0	512	505	0	259	38	1	
4	0	0	0	0	527	507	0	479	38	1	
5	0	0	0	0	542	507	0	609	38	1	
6	0	0	0	0	534	508	0	660	38	1	
7	0	0	0	0	528	508	0	589	38	1	
8	0	0	0	0	524	510	0	336	38	1	
9	0	0	0	0	502	510	0	79	38	1	
10	0	0	0	0	489	510	0	0	38	1	
11	0	0	0	0	499	508	0	0	38	1	
12	0	0	0	0	528	507	0	0	38	1	
13	0	0	0	0	523	507	0	0	38	1	
14	0	0	0	0	476	507	0	0	38	1	
15	0	0	0	0	490	506	0	0	38	1	
0	0	0	0	0	483	505	0	0	38	1	
1	0	0	0	0	471	504	0	0	38	1	
2	0	0	0	0	495	504	0	0	38	1	
3	0	0	0	0	550	504	0	0	38	1	
4	0	0	0	0	569	508	0	0	38	1	
5	0	0	0	0	534	508	0	0	38	1	
6	0	0	0	0	468	508	0	0	38	1	
7	0	0	0	0	412	508	0	0	38	1	
8	0	0	0	0	424	509	0	0	38	1	
9	0	0	0	0	494	510	0	0	38	1	
10	0	0	0	0	523	509	0	0	38	1	
11	0	0	0	0	532	510	0	0	38	1	
12	0	0	0	0	522	510	0	0	38	1	
13	0	0	0	0	515	510	0	0	38	1	
14	0	0	0	0	515	509	0	0	38	1	
15	0	0	0	0	523	507	0	0	38	1	
0	0	0	0	0	522	505	0	0	38	1	
1	0	0	0	0	512	505	0	0	38	1	
2	0	0	0	0	501	505	0	0	38	1	
3	0	0	0	0	519	506	0	0	38	1	
4	0	0	0	0	536	506	0	0	38	1	
5	0	0	0	0	540	508	0	0	38	1	
6	0	0	0	0	513	508	0	0	38	1	
7	0	0	0	0	517	508	0	0	38	1	
8	0	0	0	0	528	508	0	0	38	1	
9	0	0	0	0	524	507	0	0	38	1	
10	0	0	0	0	522	508	0	0	38	1	
11	0	0	0	0	515	509	0	0	38	1	
12	0	0	0	0	510	508	0	0	38	1	
13	0	0	0	0	512	509	0	0	38	1	
14	0	0	0	0	513	508	0	0	38	1	
15	0	0	0	0	496	508	0	0	38	1	
0	0	0	0	0	487	509	0	0	38	1	
1	0	0	0	0	478	508	0	0	38	1	
2	0	0	0	0	471	508	0	0	38	1	
3	0	0	0	0	488	508	0	0	38	1	
4	0	0	0	0	508	510	0	0	38	1	
5	0	0	0	0	504	509	0	0	38	1	
6	0	0	0	0	511	508	0	0	38	1	
7	0	0	0	0	523	508	0	0	38	1	
8	0	0	0	0	527	508	0	0	38	1	
9	0	0	0	0	543	510	0	0	38	1	
10	0	0	0	0	534	509	0	0	38	1	
11	0	0	0	0	531	508	0	0	38	1	
12	0	0	0	0	534	508	0	0	38	1	
13	0	0	0	0	513	506	0	0	38	1	
14	0	0	0	0	503	507	0	0	38	1	
15	0	0	0	0	487	507	0	0	38	1	
0	0	0	0	0	483	508	0	0	38	1	
1	0	0	0	0	497	507	0	0	38	1	
2	0	0	0	0	496	505	0	0	38	1	
3	0	0	0	0	510	505	0	0	38	1	
4	0	0	0	0	516	505	0	0	38	1	
5	0	0	0	0	510	507	0	0	38	1	
6	0	0	0	0	520	507	0	0	38	1	
7	0	0	0	0	515	507	0	0	38	1	
8	0	0	0	0	515	506	0	0	38	1	
9	0	0	0	0	516	505	0	0	38	1	
10	0	0	0	0	509	506	0	0	38	1	
11	0	0	0	0	492	508	0	0	38	1	
12	0	0	0	0	476	509	0	0	38	1	
13	0	0	0	0	486	509	0	0	38	1	
14	0	0	0	0	495	509	0	0	38	1	
15	0	0	0	0	498	508	0	0	38	1	
0	0	0	0	0	494	509	0	0	38	1	
1	0	0	0	0	495	508	0	0	38	1	
2	0	0	0	0	504	508	0	0	38	1	
3	0	0	0	0	523	507	0	0	38	1	
4	0	0	0	0	520	506	0	0	38	1	
5	0	0	0	0	533	504	0	505	38	1	
6	0	0	0	0	551	505	0	839	38	1	
7	0	0	0	0	542	508	0	1017	38	1	
8	0	0	0	0	533	509	0	1017	38	1	
9	0	0	0	0	534	509	0	1018	38	1	
10	0	0	0	0	511	511	0	1018	38	1	
11	0	0	0	0	492	510	0	1018	38	1	
12	0	0	0	0	460	509	0	1018	38	1	
13	0	0	0	0	447	508	0	1018	38	1	
14	0	0	0	0	468	509	0	1018	38	1	
15	0	0	0	0	497	511	0	606	38	1	
0	0	0	0	0	518	510	0	351	38	1	
1	0	0	0	0	525	508	0	134	38	1	
2	0	0	0	0	527	507	0	0	38	1	
3	0	0	0	0	499	507	0	0	38	1	
4	0	0	0	0	478	507	0	0	38	1	
5	0	0	0	0	464	507	0	0	38	1	
6	0	0	0	0	478	508	0	129	38	1	
7	0	0	0	0	505	507	0	147	38	1	
8	0	0	0	0	525	506	0	125	38	1	
9	0	0	0	0	528	507	0	0	38	1	
10	0	0	0	0	531	509	0	0	38	1	
11	0	0	0	0	528	509	0	0	38	1	
12	0	0	0	0	552	510	0	0	38	1	
13	0	0	0	0	578	510	0	0	38	1	
14	0	0	0	0	571	511	0	0	38	1	
15	0	0	0	0	542	511	0	0	38	1	
0	0	0	0	0	514	511	0	0	38	1	
1	0	0	0	0	494	510	0	0	38	1	
2	0	0	0	0	471	509	0	0	38	1	
3	0	0	0	0	468	510	0	0	38	1	
4	0	0	0	0	502	507	0	0	38	1	
5	0	0	0	0	534	506	0	0	38	1	
6	0	0	0	0	520	505	0	0	38	1	
7	0	0	0	0	478	505	0	0	38	1	
8	0	0	0	0	465	507	0	493	38	1	
9	0	0	0	0	484	508	0	1016	38	1	
10	0	0	0	0	519	509	0	1018	38	1	
11	0	0	0	0	527	509	0	1018	38	1	
12	0	0	0	0	527	509	0	1018	38	1	
13	0	0	0	0	524	511	0	1017	38	1	
14	0	0	0	0	512	511	0	1018	38	1	
15	0	0	0	0	497	509	0	1018	38	1	
0	0	0	0	0	496	509	0	1017	38	1	
1	0	0	0	0	504	509	0	1018	38	1	
2	0	0	0	0	499	510	0	861	38	1	
3	0	0	0	0	513	509	0	870	38	1	
4	0	0	0	0	528	510	0	1007	38	1	
5	0	0	0	0	531	510	0	1018	39	1	
6	0	0	0	0	510	508	0	1018	38	1	
7	0	0	0	0	513	508	0	1018	38	1	
8	0	0	0	0	512	508	0	1018	38	1	
9	0	0	0	0	505	510	0	1018	38	1	
10	0	0	0	0	504	510	0	1018	38	1	
11	0	0	0	0	511	511	0	1018	38	1	
12	0	0	0	0	508	512	0	1018	38	1	
13	0	0	0	0	511	511	0	1018	38	1	
14	0	0	0	0	508	508	0	1018	38	1	
15	0	0	0	0	496	508	0	1018	38	1	
0	0	0	0	0	487	508	0	1018	38	1	
1	0	0	0	0	478	509	0	1018	38	1	
2	0	0	0	0	492	508	0	1018	38	1	
3	0	0	0	0	508	508	0	1017	38	1	
4	0	0	0	0	510	508	0	1018	38	1	
5	0	0	0	0	514	507	0	603	38	1	
6	0	0	0	0	516	507	0	432	38	1	
7	0	0	0	0	517	506	0	362	38	1	
8	0	0	0	0	493	505	0	441	38	1	
9	0	0	0	0	505	508	0	588	38	1	
10	0	0	0	0	517	508	0	859	38	1	
11	0	0	0	0	513	510	0	1017	38	1	
12	0	0	0	0	521	510	0	1017	38	1	
13	0	0	0	0	515	510	0	832	38	1	
14	0	0	0	0	510	510	0	664	38	1	
15	0	0	0	0	513	509	0	521	38	1	
0	0	0	0	0	511	509	0	408	38	1	
1	0	0	0	0	507	508	0	459	38	1	
2	0	0	0	0	512	507	0	560	38	1	
3	0	0	0	0	520	508	0	542	38	1	
4	0	0	0	0	507	509	0	521	38	1	
5	0	0	0	0	508	508	0	507	38	1	
6	0	0	0	0	495	506	0	603	38	1	
7	0	0	0	0	499	505	0	907	38	1	
8	0	0	0	0	505	504	0	1017	38	1	
9	0	0	0	0	492	504	0	1018	38	1	
10	0	0	0	0	488	504	0	1018	38	1	
11	0	0	0	0	513	504	0	1018	38	1	
12	0	0	0	0	536	505	0	1018	38	1	
13	0	0	0	0	541	507	0	1018	38	1	
14	0	0	0	0	528	508	0	1018	38	1	
15	0	0	0	0	518	508	0	1018	38	1	
0	0	0	0	0	495	508	0	1018	38	1	
1	0	0	0	0	479	508	0	1018	38	1	
2	0	0	0	0	489	508	0	1018	38	1	
3	0	0	0	0	499	507	0	1018	38	1	
4	0	0	0	0	520	506	0	1018	38	1	
5	0	0	0	0	544	507	0	1018	38	1	
6	0	0	0	0	526	506	0	1018	38	1	
7	0	0	0	0	518	507	0	1018	38	1	
8	0	0	0	0	519	507	0	1018	38	1	
9	0	0	0	0	521	508	0	1018	38	1	
10	0	0	0	0	521	508	0	1018	38	1	
11	0	0	0	0	513	510	0	1018	38	1	
12	0	0	0	0	516	511	0	1018	38	1	
13	0	0	0	0	525	512	0	1018	38	1	
14	0	0	0	0	525	511	0	559	38	1	
15	0	0	0	0	521	508	0	65	38	1	
0	0	0	0	0	481	508	0	0	38	1	
1	0	0	0	0	476	509	0	0	38	1	
2	0	0	0	0	477	510	0	0	38	1	
3	0	0	0	0	487	510	0	0	38	1	
4	0	0	0	0	491	511	0	0	38	1	
5	0	0	0	0	492	511	0	0	38	1	
6	0	0	0	0	493	509	0	0	38	1	
7	0	0	0	0	510	508	0	0	38	1	
8	0	0	0	0	507	507	0	0	38	1	
9	0	0	0	0	501	506	0	0	38	1	
10	0	0	0	0	502	506	0	0	38	1	
11	0	0	0	0	504	506	0	0	38	1	
12	0	0	0	0	514	507	0	185	38	1	
13	0	0	0	0	525	505	0	479	38	1	
14	0	0	0	0	542	505	0	638	38	1	
15	0	0	0	0	547	508	0	684	38	1	
0	0	0	0	0	540	509	0	659	38	1	
1	0	0	0	0	526	509	0	614	38	1	
2	0	0	0	0	509	508	0	619	38	1	
3	0	0	0	0	471	507	0	580	38	1	
4	0	0	0	0	461	507	0	463	38	1	
5	0	0	0	0	481	506	0	355	38	1	
6	0	0	0	0	515	505	0	389	38	1	
7	0	0	0	0	507	504	0	414	38	1	
8	0	0	0	0	497	503	0	528	38	1	
9	0	0	0	0	520	503	0	761	38	1	
10	0	0	0	0	538	505	0	1018	38	1	
11	0	0	0	0	529	505	0	1018	38	1	
12	0	0	0	0	508	507	0	1018	38	1	
13	0	0	0	0	491	506	0	1018	38	1	
14	0	0	0	0	480	505	0	1018	38	1	
15	0	0	0	0	503	505	0	1018	38	1	
0	0	0	0	0	511	508	0	1018	38	1	
1	0	0	0	0	514	510	0	1018	38	1	
2	0	0	0	0	506	508	0	1018	38	1	
3	0	0	0	0	514	508	0	1018	38	1	
4	0	0	0	0	524	508	0	600	38	1	
5	0	0	0	0	518	509	0	132	38	1	
6	0	0	0	0	509	510	0	0	38	1	
7	0	0	0	0	498	508	0	0	38	1	
8	0	0	0	0	510	507	0	0	38	1	
9	0	0	0	0	534	506	0	0	38	1	
10	0	0	0	0	538	505	0	0	38	1	
11	0	0	0	0	512	505	0	0	38	1	
12	0	0	0	0	481	504	0	0	38	1	
13	0	0	0	0	490	506	0	0	38	1	
14	0	0	0	0	509	507	0	0	38	1	
15	0	0	0	0	510	508	0	0	38	1	
0	0	0	0	0	514	508	0	0	38	1	
1	0	0	0	0	508	509	0	0	38	1	
2	0	0	0	0	506	508	0	0	38	1	
3	0	0	0	0	512	507	0	0	38	1	
4	0	0	0	0	504	507	0	0	38	1	
5	0	0	0	0	487	507	0	0	38	1	
6	0	0	0	0	505	506	0	0	38	1	
7	0	0	0	0	512	505	0	0	38	1	
8	0	0	0	0	532	507	0	0	38	1	
9	0	0	0	0	540	507	0	0	38	1	
10	0	0	0	0	540	507	0	0	38	1	
11	0	0	0	0	511	505	0	0	38	1	
12	0	0	0	0	491	505	0	486	38	1	
13	0	0	0	0	504	506	0	941	38	1	
14	0	0	0	0	507	507	0	1018	38	1	
15	0	0	0	0	502	508	0	1018	38	1	
0	0	0	0	0	500	509	0	1018	38	1	
1	0	0	0	0	502	508	0	1018	38	1	
2	0	0	0	0	501	509	0	1018	38	1	
3	0	0	0	0	490	510	0	715	38	1	
4	0	0	0	0	500	509	0	480	38	1	
5	0	0	0	0	506	508	0	247	38	1	
6	0	0	0	0	492	508	0	0	38	1	
7	0	0	0	0	495	508	0	0	38	1	
8	0	0	0	0	514	507	0	0	38	1	
9	0	0	0	0	533	507	0	0	38	1	
10	0	0	0	0	536	505	0	0	38	1	
11	0	0	0	0	519	503	0	0	38	1	
12	0	0	0	0	521	504	0	0	38	1	
13	0	0	0	0	550	504	0	0	38	1	
14	0	0	0	0	568	507	0	0	38	1	
15	0	0	0	0	537	509	0	0	38	1	
0	0	0	0	0	512	510	0	0	38	1	
1	0	0	0	0	513	512	0	0	38	1	
2	0	0	0	0	473	508	0	0	38	1	
3	0	0	0	0	421	510	0	0	38	1	
4	0	0	0	0	395	508	0	0	38	1	
5	0	0	0	0	453	508	0	0	38	1	
6	0	0	0	0	488	509	0	0	38	1	
7	0	0	0	0	500	509	0	0	38	1	
8	0	0	0	0	547	509	0	0	38	1	
9	0	0	0	0	571	507	0	0	38	1	
10	0	0	0	0	568	505	0	0	38	1	
11	0	0	0	0	531	505	0	0	38	1	
12	0	0	0	0	498	505	0	0	38	1	
13	0	0	0	0	476	504	0	175	38	1	
14	0	0	0	0	482	504	0	571	38	1	
15	0	0	0	0	512	506	0	909	38	1	
0	0	0	0	0	530	507	0	1018	38	1	
1	0	0	0	0	537	507	0	1018	38	1	
2	0	0	0	0	523	508	0	1018	38	1	
3	0	0	0	0	508	506	0	1018	38	1	
4	0	0	0	0	499	506	0	1018	38	1	
5	0	0	0	0	495	507	0	1018	38	1	
6	0	0	0	0	503	507	0	1018	38	1	
7	0	0	0	0	508	508	0	1017	38	1	
8	0	0	0	0	507	507	0	1018	38	1	
9	0	0	0	0	528	507	0	854	38	1	
10	0	0	0	0	534	505	0	856	38	1	
11	0	0	0	0	513	503	0	898	38	1	
12	0	0	0	0	490	504	0	951	38	1	
13	0	0	0	0	489	504	0	1018	38	1	
14	0	0	0	0	504	503	0	1018	38	1	
15	0	0	0	0	508	506	0	1018	38	1	
0	0	0	0	0	513	507	0	1018	38	1	
1	0	0	0	0	503	508	0	1018	38	1	
2	0	0	0	0	501	509	0	1018	38	1	
3	0	0	0	0	510	509	0	1018	38	1	
4	0	0	0	0	508	511	0	1018	38	1	
5	0	0	0	0	506	510	0	1018	38	1	
6	0	0	0	0	511	508	0	1018	38	1	
7	0	0	0	0	513	508	0	1018	38	1	
8	0	0	0	0	522	508	0	1018	38	1	
9	0	0	0	0	515	506	0	1018	38	1	
10	0	0	0	0	523	507	0	1018	38	1	
11	0	0	0	0	515	506	0	1018	38	1	
12	0	0	0	0	519	505	0	1018	38	1	
13	0	0	0	0	525	503	0	1018	38	1	
14	0	0	0	0	535	503	0	1018	38	1	
15	0	0	0	0	512	503	0	1018	38	1	
0	0	0	0	0	495	507	0	1018	38	1	
1	0	0	0	0	485	507	0	1018	38	1	
2	0	0	0	0	473	509	0	1018	38	1	
3	0	0	0	0	491	508	0	1018	38	1	
4	0	0	0	0	502	510	0	1018	38	1	
5	0	0	0	0	515	510	0	1017	38	1	
6	0	0	0	0	511	510	0	661	38	1	
7	0	0	0	0	522	508	0	298	38	1	
8	0	0	0	0	529	509	0	0	38	1	
9	0	0	0	0	527	510	0	0	38	1	
10	0	0	0	0	510	511	0	0	38	1	
11	0	0	0	0	508	508	0	0	38	1	
12	0	0	0	0	501	507	0	0	38	1	
13	0	0	0	0	487	505	0	0	38	1	
14	0	0	0	0	492	503	0	0	38	1	
15	0	0	0	0	493	504	0	0	38	1	
0	0	0	0	0	483	505	0	0	38	1	
1	0	0	0	0	501	507	0	0	38	1	
2	0	0	0	0	500	512	0	0	38	1	
3	0	0	0	0	524	514	0	0	38	1	
4	0	0	0	0	527	512	0	0	38	1	
5	0	0	0	0	543	512	0	0	38	1	
6	0	0	0	0	558	512	0	0	38	1	
7	0	0	0	0	569	512	0	0	38	1	
8	0	0	0	0	581	513	0	0	38	1	
9	0	0	0	0	594	513	0	0	38	1	
10	0	0	0	0	560	511	0	0	38	1	
11	0	0	0	0	519	511	0	0	38	1	
12	0	0	0	0	477	510	0	0	38	1	
13	0	0	0	0	419	511	0	0	38	1	
14	0	0	0	0	374	509	0	0	38	1	
15	0	0	0	0	386	507	0	0	38	1	
0	0	0	0	0	411	507	0	0	38	1	
1	0	0	0	0	461	508	0	0	38	1	
2	0	0	0	0	499	509	0	428	38	1	
3	0	0	0	0	503	510	0	870	38	1	
4	0	0	0	0	527	510	0	1018	38	1	
5	0	0	0	0	523	508	0	1018	38	1	
6	0	0	0	0	510	510	0	1018	38	1	
7	0	0	0	0	540	510	0	1018	38	1	
8	0	0	0	0	541	508	0	1018	38	1	
9	0	0	0	0	536	507	0	1017	38	1	
10	0	0	0	0	504	508	0	547	38	1	
11	0	0	0	0	514	510	0	57	38	1	
12	0	0	0	0	537	507	0	0	38	1	
13	0	0	0	0	545	510	0	0	38	1	
14	0	0	0	0	536	508	0	0	38	1	
15	0	0	0	0	543	504	0	0	38	1	
0	0	0	0	0	553	504	0	0	38	1	
1	0	0	0	0	540	505	0	0	38	1	
2	0	0	0	0	523	508	0	0	38	1	
3	0	0	0	0	502	509	0	0	38	1	
4	0	0	0	0	496	509	0	0	38	1	
5	0	0	0	0	520	506	0	0	38	1	
6	0	0	0	0	507	508	0	0	38	1	
7	0	0	0	0	499	508	0	0	38	1	
8	0	0	0	0	494	507	0	0	38	1	
9	0	0	0	0	477	508	0	0	38	1	
10	0	0	0	0	477	507	0	0	38	1	
11	0	0	0	0	489	505	0	0	38	1	
12	0	0	0	0	500	505	0	0	38	1	
13	0	0	0	0	511	505	0	0	38	1	
14	0	0	0	0	521	506	0	0	38	1	
15	0	0	0	0	488	504	0	0	38	1	
0	0	0	0	0	467	504	0	0	38	1	
1	0	0	0	0	484	505	0	0	38	1	
2	0	0	0	0	491	507	0	0	38	1	
3	0	0	0	0	513	507	0	0	38	1	
4	0	0	0	0	532	508	0	0	38	1	
5	0	0	0	0	533	508	0	0	38	1	
6	0	0	0	0	540	510	0	0	38	1	
7	0	0	0	0	537	510	0	0	38	1	
8	0	0	0	0	501	507	0	0	38	1	
9	0	0	0	0	484	505	0	0	38	1	
10	0	0	0	0	502	508	0	0	38	1	
11	0	0	0	0	515	509	0	0	38	1	
12	0	0	0	0	509	508	0	0	38	1	
13	0	0	0	0	496	506	0	0	38	1	
14	0	0	0	0	487	506	0	0	38	1	
15	0	0	0	0	495	504	0	0	38	1	
0	0	0	0	0	519	504	0	0	38	1	
1	0	0	0	0	517	505	0	0	38	1	
2	0	0	0	0	527	504	0	0	38	1	
3	0	0	0	0	537	506	0	0	38	1	
4	0	0	0	0	533	508	0	0	38	1	
5	0	0	0	0	526	509	0	459	38	1	
6	0	0	0	0	520	510	0	858	38	1	
7	0	0	0	0	521	510	0	1017	38	1	
8	0	0	0	0	524	511	0	1017	38	1	
9	0	0	0	0	531	511	0	1018	38	1	
10	0	0	0	0	526	512	0	1018	38	1	
11	0	0	0	0	518	511	0	1018	38	1	
12	0	0	0	0	511	510	0	1018	38	1	
13	0	0	0	0	511	511	0	1018	38	1	
14	0	0	0	0	498	509	0	1018	38	1	
15	0	0	0	0	477	507	0	1017	38	1	
0	0	0	0	0	484	507	0	1018	38	1	
1	0	0	0	0	515	506	0	1018	38	1	
2	0	0	0	0	534	505	0	1018	38	1	
3	0	0	0	0	523	505	0	1018	38	1	
4	0	0	0	0	487	507	0	1018	38	1	
5	0	0	0	0	441	508	0	1018	38	1	
6	0	0	0	0	438	508	0	1018	38	1	
7	0	0	0	0	444	509	0	1018	38	1	
8	0	0	0	0	506	508	0	1018	38	1	
9	0	0	0	0	542	508	0	1018	38	1	
10	0	0	0	0	551	507	0	1018	38	1	
11	0	0	0	0	537	507	0	1018	38	1	
12	0	0	0	0	520	505	0	1018	38	1	
13	0	0	0	0	500	506	0	1018	38	1	
14	0	0	0	0	473	507	0	1018	38	1	
15	0	0	0	0	469	505	0	1018	38	1	
0	0	0	0	0	507	504	0	1018	38	1	
1	0	0	0	0	557	502	0	1018	38	1	
2	0	0	0	0	532	502	0	1018	38	1	
3	0	0	0	0	503	504	0	1018	38	1	
4	0	0	0	0	515	505	0	1018	38	1	
5	0	0	0	0	502	505	0	1018	38	1	
6	0	0	0	0	496	507	0	1018	38	1	
7	0	0	0	0	508	507	0	1018	38	1	
8	0	0	0	0	512	509	0	1018	38	1	
9	0	0	0	0	521	509	0	1018	38	1	
10	0	0	0	0	524	510	0	1018	38	1	
11	0	0	0	0	528	508	0	1018	38	1	
12	0	0	0	0	534	509	0	1018	38	1	
13	0	0	0	0	538	512	0	1018	38	1	
14	0	0	0	0	532	511	0	1018	38	1	
15	0	0	0	0	507	510	0	1018	38	1	
0	0	0	0	0	511	510	0	1018	38	1	
1	0	0	0	0	510	510	0	1018	38	1	
2	0	0	0	0	503	508	0	1018	38	1	
3	0	0	0	0	498	507	0	1018	38	1	
4	0	0	0	0	470	507	0	1018	38	1	
5	0	0	0	0	504	508	0	1018	38	1	
6	0	0	0	0	532	509	0	1018	38	1	
7	0	0	0	0	542	509	0	1018	38	1	
8	0	0	0	0	532	511	0	1018	38	1	
9	0	0	0	0	529	512	0	1018	38	1	
10	0	0	0	0	524	510	0	1018	38	1	
11	0	0	0	0	499	509	0	1018	38	1	
12	0	0	0	0	475	510	0	1018	38	1	
13	0	0	0	0	462	509	0	1018	38	1	
14	0	0	0	0	442	508	0	1018	38	1	
15	0	0	0	0	452	507	0	1018	38	1	
0	0	0	0	0	461	505	0	1018	38	1	
1	0	0	0	0	478	505	0	1018	38	1	
2	0	0	0	0	494	505	0	1018	38	1	
3	0	0	0	0	515	507	0	1018	38	1	
4	0	0	0	0	526	507	0	1018	38	1	
5	0	0	0	0	536	506	0	1018	38	1	
6	0	0	0	0	551	509	0	1018	38	1	
7	0	0	0	0	549	509	0	1018	38	1	
8	0	0	0	0	544	509	0	1018	38	1	
9	0	0	0	0	534	510	0	1018	38	1	
10	0	0	0	0	532	509	0	611	38	1	
11	0	0	0	0	518	509	0	94	38	1	
12	0	0	0	0	517	508	0	0	38	1	
13	0	0	0	0	506	508	0	0	38	1	
14	0	0	0	0	499	508	0	0	38	1	
15	0	0	0	0	504	508	0	0	38	1	
0	0	0	0	0	516	507	0	0	38	1	
1	0	0	0	0	517	507	0	0	38	1	
2	0	0	0	0	517	506	0	0	38	1	
3	0	0	0	0	510	505	0	0	38	1	
4	0	0	0	0	497	506	0	0	38	1	
5	0	0	0	0	503	505	0	0	38	1	
6	0	0	0	0	500	505	0	0	38	1	
7	0	0	0	0	510	507	0	0	38	1	
8	0	0	0	0	528	510	0	0	38	1	
9	0	0	0	0	528	511	0	0	38	1	
10	0	0	0	0	513	513	0	0	38	1	
11	0	0	0	0	505	514	0	0	38	1	
12	0	0	0	0	504	513	0	0	38	1	
13	0	0	0	0	492	511	0	0	38	1	
14	0	0	0	0	494	510	0	0	38	1	
15	0	0	0	0	503	511	0	0	38	1	
0	0	0	0	0	504	511	0	0	38	1	
1	0	0	0	0	473	510	0	0	38	1	
2	0	0	0	0	452	509	0	0	38	1	
3	0	0	0	0	463	510	0	0	38	1	
4	0	0	0	0	489	508	0	0	38	1	
5	0	0	0	0	511	507	0	0	38	1	
6	0	0	0	0	503	508	0	0	38	1	
7	0	0	0	0	500	509	0	0	38	1	
8	0	0	0	0	527	511	0	0	38	1	
9	0	0	0	0	558	511	0	317	38	1	
10	0	0	0	0	571	512	0	814	38	1	
11	0	0	0	0	574	511	0	1018	38	1	
12	0	0	0	0	558	512	0	1018	38	1	
13	0	0	0	0	545	512	0	1018	38	1	
14	0	0	0	0	515	510	0	1018	38	1	
15	0	0	0	0	488	508	0	1018	38	1	
0	0	0	0	0	481	508	0	1018	38	1	
1	0	0	0	0	508	507	0	1018	38	1	
2	0	0	0	0	504	505	0	625	38	1	
3	0	0	0	0	505	504	0	313	38	1	
4	0	0	0	0	484	505	0	136	38	1	
5	0	0	0	0	439	504	0	176	38	1	
6	0	0	0	0	460	503	0	372	38	1	
7	0	0	0	0	501	503	0	597	38	1	
8	0	0	0	0	504	504	0	920	38	1	
9	0	0	0	0	489	504	0	1018	38	1	
10	0	0	0	0	489	506	0	1018	38	1	
11	0	0	0	0	520	508	0	1018	38	1	
12	0	0	0	0	530	510	0	1018	38	1	
13	0	0	0	0	522	510	0	1018	38	1	
14	0	0	0	0	531	510	0	1018	38	1	
15	0	0	0	0	539	508	0	1018	38	1	
0	0	0	0	0	533	507	0	1018	38	1	
1	0	0	0	0	517	507	0	1018	38	1	
2	0	0	0	0	508	508	0	1018	38	1	
3	0	0	0	0	504	507	0	1018	38	1	
4	0	0	0	0	523	508	0	1017	38	1	
5	0	0	0	0	540	504	0	1018	38	1	
6	0	0	0	0	525	505	0	1018	38	1	
7	0	0	0	0	502	505	0	1018	38	1	
8	0	0	0	0	483	505	0	1018	38	1	
9	0	0	0	0	505	508	0	1018	38	1	
10	0	0	0	0	511	510	0	1018	38	1	
11	0	0	0	0	512	512	0	1018	38	1	
12	0	0	0	0	510	512	0	1018	38	1	
13	0	0	0	0	487	511	0	1018	38	1	
14	0	0	0	0	474	509	0	1018	38	1	
15	0	0	0	0	476	508	0	1018	38	1	
0	0	0	0	0	507	507	0	894	38	1	
1	0	0	0	0	528	507	0	464	38	1	
2	0	0	0	0	529	506	0	0	38	1	
3	0	0	0	0	499	505	0	0	38	1	
4	0	0	0	0	497	505	0	0	38	1	
5	0	0	0	0	526	504	0	0	38	1	
6	0	0	0	0	525	504	0	0	38	1	
7	0	0	0	0	510	504	0	0	38	1	
8	0	0	0	0	519	504	0	0	38	1	
9	0	0	0	0	521	507	0	0	38	1	
10	0	0	0	0	507	508	0	0	38	1	
11	0	0	0	0	504	509	0	0	38	1	
12	0	0	0	0	504	510	0	0	38	1	
13	0	0	0	0	489	508	0	0	38	1	
14	0	0	0	0	487	506	0	0	38	1	
15	0	0	0	0	490	508	0	0	38	1	
0	0	0	0	0	517	509	0	0	38	1	
1	0	0	0	0	529	509	0	0	38	1	
2	0	0	0	0	533	508	0	0	38	1	
3	0	0	0	0	523	509	0	0	38	1	
4	0	0	0	0	532	510	0	0	38	1	
5	0	0	0	0	531	509	0	0	38	1	
6	0	0	0	0	529	508	0	0	38	1	
7	0	0	0	0	518	506	0	0	38	1	
8	0	0	0	0	522	505	0	0	38	1	
9	0	0	0	0	508	505	0	0	38	1	
10	0	0	0	0	479	505	0	269	38	1	
11	0	0	0	0	476	505	0	509	38	1	
12	0	0	0	0	503	507	0	786	38	1	
13	0	0	0	0	527	509	0	994	38	1	
14	0	0	0	0	527	511	0	1018	38	1	
15	0	0	0	0	531	511	0	881	38	1	
0	0	0	0	0	513	511	0	688	38	1	
1	0	0	0	0	469	508	0	412	38	1	
2	0	0	0	0	419	509	0	45	38	1	
3	0	0	0	0	449	509	0	0	38	1	
4	0	0	0	0	527	509	0	0	38	1	
5	0	0	0	0	545	508	0	0	38	1	
6	0	0	0	0	522	508	0	0	38	1	
7	0	0	0	0	524	507	0	0	38	1	
8	0	0	0	0	527	508	0	549	38	1	
9	0	0	0	0	513	508	0	1017	38	1	
10	0	0	0	0	513	508	0	1018	38	1	
11	0	0	0	0	501	507	0	1018	38	1	
12	0	0	0	0	485	508	0	1018	38	1	
13	0	0	0	0	473	507	0	1018	38	1	
14	0	0	0	0	493	508	0	1018	38	1	
15	0	0	0	0	513	508	0	1018	38	1	
0	0	0	0	0	513	509	0	1018	38	1	
1	0	0	0	0	519	510	0	1017	38	1	
2	0	0	0	0	532	510	0	1018	38	1	
3	0	0	0	0	549	509	0	1018	38	1	
4	0	0	0	0	543	509	0	1018	38	1	
5	0	0	0	0	534	508	0	1018	38	1	
6	0	0	0	0	524	508	0	1018	38	1	
7	0	0	0	0	508	507	0	1018	38	1	
8	0	0	0	0	491	506	0	1018	38	1	
9	0	0	0	0	500	506	0	1018	38	1	
10	0	0	0	0	503	504	0	1018	38	1	
11	0	0	0	0	481	505	0	1018	38	1	
12	0	0	0	0	464	506	0	1018	38	1	
13	0	0	0	0	477	507	0	1018	38	1	
14	0	0	0	0	525	507	0	1018	38	1	
15	0	0	0	0	524	507	0	1018	38	1	
0	0	0	0	0	504	508	0	1018	38	1	
1	0	0	0	0	494	508	0	1018	38	1	
2	0	0	0	0	493	507	0	1018	38	1	
3	0	0	0	0	517	507	0	1018	38	1	
4	0	0	0	0	508	508	0	1018	38	1	
5	0	0	0	0	502	506	0	1018	38	1	
6	0	0	0	0	523	508	0	1018	38	1	
7	0	0	0	0	515	505	0	1018	38	1	
8	0	0	0	0	515	504	0	1018	38	1	
9	0	0	0	0	513	505	0	1018	38	1	
10	0	0	0	0	519	505	0	1018	38	1	
11	0	0	0	0	518	507	0	1018	38	1	
12	0	0	0	0	512	507	0	1018	38	1	
13	0	0	0	0	515	508	0	1018	38	1	
14	0	0	0	0	518	509	0	1018	38	1	
15	0	0	0	0	502	509	0	1018	38	1	
0	0	0	0	0	496	511	0	1018	38	1	
1	0	0	0	0	497	512	0	1018	38	1	
2	0	0	0	0	508	510	0	1018	38	1	
3	0	0	0	0	517	509	0	1018	38	1	
4	0	0	0	0	522	507	0	1018	38	1	
5	0	0	0	0	519	507	0	1018	38	1	
6	0	0	0	0	509	507	0	1018	38	1	
7	0	0	0	0	516	507	0	1018	38	1	
8	0	0	0	0	506	506	0	1018	38	1	
9	0	0	0	0	508	505	0	1018	38	1	
10	0	0	0	0	513	505	0	1018	38	1	
11	0	0	0	0	518	507	0	1018	38	1	
12	0	0	0	0	514	507	0	1018	38	1	
13	0	0	0	0	509	508	0	1018	38	1	
14	0	0	0	0	520	509	0	1018	38	1	
15	0	0	0	0	522	510	0	1018	38	1	
0	0	0	0	0	515	511	0	1018	38	1	
1	0	0	0	0	509	512	0	1018	38	1	
2	0	0	0	0	505	509	0	1018	38	1	
3	0	0	0	0	508	508	0	1018	38	1	
4	0	0	0	0	506	507	0	1018	38	1	
5	0	0	0	0	509	507	0	1018	38	1	
6	0	0	0	0	516	505	0	1018	38	1	
7	0	0	0	0	510	505	0	1018	38	1	
8	0	0	0	0	505	504	0	1018	38	1	
9	0	0	0	0	508	503	0	1018	38	1	
10	0	0	0	0	514	503	0	1018	38	1	
11	0	0	0	0	517	502	0	1018	38	1	
12	0	0	0	0	504	504	0	1018	38	1	
13	0	0	0	0	507	509	0	1018	38	1	
14	0	0	0	0	512	510	0	1018	38	1	
15	0	0	0	0	512	513	0	1018	38	1	
0	0	0	0	0	496	513	0	1018	38	1	
1	0	0	0	0	503	513	0	1018	38	1	
2	0	0	0	0	498	510	0	1018	38	1	
3	0	0	0	0	470	509	0	1018	38	1	
4	0	0	0	0	442	511	0	1018	38	1	
5	0	0	0	0	442	511	0	1018	38	1	
6	0	0	0	0	480	511	0	1018	38	1	
7	0	0	0	0	530	510	0	1018	38	1	
8	0	0	0	0	545	508	0	1018	38	1	
9	0	0	0	0	535	509	0	1018	38	1	
10	0	0	0	0	531	508	0	1018	38	1	
11	0	0	0	0	531	508	0	1018	38	1	
12	0	0	0	0	513	507	0	1018	38	1	
13	0	0	0	0	493	507	0	1018	38	1	
14	0	0	0	0	487	508	0	1018	38	1	
15	0	0	0	0	495	506	0	1018	38	1	
0	0	0	0	0	508	508	0	1018	38	1	
1	0	0	0	0	498	508	0	1017	38	1	
2	0	0	0	0	519	509	0	1018	38	1	
3	0	0	0	0	546	510	0	1018	38	1	
4	0	0	0	0	570	508	0	1018	38	1	
5	0	0	0	0	565	507	0	1018	38	1	
6	0	0	0	0	550	508	0	1018	38	1	
7	0	0	0	0	537	509	0	1018	38	1	
8	0	0	0	0	521	508	0	1018	38	1	
9	0	0	0	0	505	508	0	1018	38	1	
10	0	0	0	0	497	506	0	1018	38	1	
11	0	0	0	0	496	506	0	1018	38	1	
12	0	0	0	0	508	507	0	1018	38	1	
13	0	0	0	0	493	507	0	1018	38	1	
14	0	0	0	0	488	507	0	1018	38	1	
15	0	0	0	0	503	508	0	1018	38	1	
0	0	0	0	0	502	508	0	1018	38	1	
1	0	0	0	0	492	509	0	1018	38	1	
2	0	0	0	0	504	509	0	1018	38	1	
3	0	0	0	0	521	511	0	1018	38	1	
4	0	0	0	0	509	511	0	1018	38	1	
5	0	0	0	0	499	510	0	1018	38	1	
6	0	0	0	0	504	509	0	1018	38	1	
7	0	0	0	0	516	510	0	1018	38	1	
8	0	0	0	0	514	509	0	1018	38	1	
9	0	0	0	0	496	509	0	1018	38	1	
10	0	0	0	0	478	508	0	1018	38	1	
11	0	0	0	0	477	507	0	1018	38	1	
12	0	0	0	0	479	506	0	1017	38	1	
13	0	0	0	0	492	507	0	1018	38	1	
14	0	0	0	0	493	507	0	1018	38	1	
15	0	0	0	0	502	507	0	1018	38	1	
0	0	0	0	0	504	508	0	1018	38	1	
1	0	0	0	0	507	508	0	1018	38	1	
2	0	0	0	0	503	508	0	1018	38	1	
3	0	0	0	0	519	508	0	1018	38	1	
4	0	0	0	0	523	507	0	1018	38	1	
5	0	0	0	0	535	507	0	1018	38	1	
6	0	0	0	0	547	508	0	1018	38	1	
7	0	0	0	0	547	508	0	1018	38	1	
8	0	0	0	0	539	509	0	1018	38	1	
9	0	0	0	0	525	510	0	1017	38	1	
10	0	0	0	0	512	508	0	1018	38	1	
11	0	0	0	0	518	507	0	1018	38	1	
12	0	0	0	0	511	506	0	1018	38	1	
13	0	0	0	0	501	504	0	1018	38	1	
14	0	0	0	0	490	505	0	1018	38	1	
15	0	0	0	0	482	506	0	1018	38	1	
0	0	0	0	0	490	506	0	1018	38	1	
1	0	0	0	0	502	509	0	1018	38	1	
2	0	0	0	0	513	511	0	1018	38	1	
3	0	0	0	0	518	512	0	1018	38	1	
4	0	0	0	0	520	512	0	1018	38	1	
5	0	0	0	0	523	513	0	1018	38	1	
6	0	0	0	0	521	512	0	1018	38	1	
7	0	0	0	0	517	510	0	1018	38	1	
8	0	0	0	0	504	509	0	1018	38	1	
9	0	0	0	0	502	509	0	1018	38	1	
10	0	0	0	0	501	509	0	1018	38	1	
11	0	0	0	0	483	508	0	1018	38	1	
12	0	0	0	0	495	505	0	1018	38	1	
13	0	0	0	0	518	505	0	1018	38	1	
14	0	0	0	0	528	504	0	1018	38	1	
15	0	0	0	0	535	505	0	1018	38	1	
0	0	0	0	0	529	505	0	1018	38	1	
1	0	0	0	0	522	505	0	1018	38	1	
2	0	0	0	0	503	507	0	1018	38	1	
3	0	0	0	0	511	508	0	1018	38	1	
4	0	0	0	0	516	510	0	1018	38	1	
5	0	0	0	0	518	509	0	1018	38	1	
6	0	0	0	0	508	508	0	1018	38	1	
7	0	0	0	0	494	509	0	1018	38	1	
8	0	0	0	0	473	510	0	1018	38	1	
9	0	0	0	0	496	510	0	1018	38	1	
10	0	0	0	0	497	509	0	625	38	1	
11	0	0	0	0	469	508	0	0	38	1	
12	0	0	0	0	464	508	0	0	38	1	
13	0	0	0	0	478	508	0	0	38	1	
14	0	0	0	0	492	506	0	0	38	1	
15	0	0	0	0	511	507	0	0	38	1	
0	0	0	0	0	535	507	0	0	38	1	
1	0	0	0	0	552	507	0	0	38	1	
2	0	0	0	0	546	505	0	0	38	1	
3	0	0	0	0	528	507	0	0	38	1	
4	0	0	0	0	509	507	0	0	38	1	
5	0	0	0	0	502	507	0	0	38	1	
6	0	0	0	0	517	507	0	0	38	1	
7	0	0	0	0	527	504	0	0	38	1	
8	0	0	0	0	530	506	0	0	38	1	
9	0	0	0	0	534	508	0	0	38	1	
10	0	0	0	0	535	510	0	0	38	1	
11	0	0	0	0	511	510	0	0	38	1	
12	0	0	0	0	471	511	0	0	38	1	
13	0	0	0	0	476	510	0	0	38	1	
14	0	0	0	0	518	508	0	0	38	1	
15	0	0	0	0	542	508	0	0	38	1	
0	0	0	0	0	538	508	0	202	38	1	
1	0	0	0	0	533	508	0	805	38	1	
2	0	0	0	0	524	509	0	1018	38	1	
3	0	0	0	0	509	510	0	1018	38	1	
4	0	0	0	0	498	509	0	1018	38	1	
5	0	0	0	0	447	510	0	1018	38	1	
6	0	0	0	0	437	508	0	1018	38	1	
7	0	0	0	0	456	509	0	1018	38	1	
8	0	0	0	0	447	508	0	1018	38	1	
9	0	0	0	0	452	508	0	1018	38	1	
10	0	0	0	0	494	508	0	1018	38	1	
11	0	0	0	0	512	508	0	1018	38	1	
12	0	0	0	0	545	510	0	1018	38	1	
13	0	0	0	0	561	509	0	1018	38	1	
14	0	0	0	0	555	508	0	1018	38	1	
15	0	0	0	0	555	508	0	1018	38	1	
0	0	0	0	0	544	508	0	1018	38	1	
1	0	0	0	0	526	506	0	1018	38	1	
2	0	0	0	0	498	505	0	1018	38	1	
3	0	0	0	0	500	508	0	1018	38	1	
4	0	0	0	0	502	508	0	1018	38	1	
5	0	0	0	0	490	509	0	1018	38	1	
6	0	0	0	0	489	509	0	1018	38	1	
7	0	0	0	0	493	510	0	1018	38	1	
8	0	0	0	0	508	509	0	1018	38	1	
9	0	0	0	0	505	508	0	1018	38	1	
10	0	0	0	0	520	508	0	1018	38	1	
11	0	0	0	0	521	507	0	1018	38	1	
12	0	0	0	0	525	506	0	1018	38	1	
13	0	0	0	0	526	505	0	1018	38	1	
14	0	0	0	0	531	506	0	1018	38	1	
15	0	0	0	0	551	505	0	1018	38	1	
0	0	0	0	0	532	505	0	1018	38	1	
1	0	0	0	0	500	504	0	1018	38	1	
2	0	0	0	0	493	504	0	1018	38	1	
3	0	0	0	0	493	505	0	1018	38	1	
4	0	0	0	0	501	508	0	1018	38	1	
5	0	0	0	0	514	509	0	1018	38	1	
6	0	0	0	0	522	510	0	1018	38	1	
7	0	0	0	0	517	510	0	1018	38	1	
8	0	0	0	0	512	510	0	1018	38	1	
9	0	0	0	0	513	509	0	1018	38	1	
10	0	0	0	0	522	507	0	691	38	1	
11	0	0	0	0	527	507	0	142	38	1	
12	0	0	0	0	532	506	0	0	38	1	
13	0	0	0	0	513	506	0	0	38	1	
14	0	0	0	0	498	505	0	0	38	1	
15	0	0	0	0	475	505	0	0	38	1	
0	0	0	0	0	447	504	0	0	38	1	
1	0	0	0	0	445	504	0	0	38	1	
2	0	0	0	0	472	504	0	0	38	1	
3	0	0	0	0	496	504	0	0	38	1	
4	0	0	0	0	520	507	0	0	38	1	
5	0	0	0	0	536	507	0	0	38	1	
6	0	0	0	0	523	508	0	0	38	1	
7	0	0	0	0	506	509	0	0	38	1	
8	0	0	0	0	515	509	0	0	38	1	
9	0	0	0	0	504	509	0	0	38	1	
10	0	0	0	0	485	508	0	0	38	1	
11	0	0	0	0	475	505	0	0	38	1	
12	0	0	0	0	490	505	0	0	38	1	
13	0	0	0	0	517	505	0	0	38	1	
14	0	0	0	0	542	508	0	0	38	1	
15	0	0	0	0	545	505	0	0	38	1	
0	0	0	0	0	523	505	0	0	38	1	
1	0	0	0	0	519	504	0	0	38	1	
2	0	0	0	0	527	504	0	0	38	1	
3	0	0	0	0	548	505	0	0	38	1	
4	0	0	0	0	549	506	0	0	38	1	
5	0	0	0	0	537	505	0	0	38	1	
6	0	0	0	0	510	508	0	0	38	1	
7	0	0	0	0	471	511	0	0	38	1	
8	0	0	0	0	465	512	0	0	38	1	
9	0	0	0	0	481	511	0	0	38	1	
10	0	0	0	0	504	511	0	0	38	1	
11	0	0	0	0	523	509	0	0	38	1	
12	0	0	0	0	528	510	0	0	38	1	
13	0	0	0	0	510	510	0	0	38	1	
14	0	0	0	0	495	509	0	0	38	1	
15	0	0	0	0	476	507	0	0	38	1	
0	0	0	0	0	467	507	0	0	38	1	
1	0	0	0	0	485	505	0	0	38	1	
2	0	0	0	0	489	507	0	0	38	1	
3	0	0	0	0	527	507	0	0	38	1	
4	0	0	0	0	527	508	0	0	38	1	
5	0	0	0	0	529	508	0	0	38	1	
6	0	0	0	0	526	508	0	0	38	1	
7	0	0	0	0	518	510	0	0	38	1	
8	0	0	0	0	508	510	0	0	38	1	
9	0	0	0	0	504	510	0	0	38	1	
10	0	0	0	0	508	509	0	116	38	1	
11	0	0	0	0	506	510	0	0	38	1	
12	0	0	0	0	504	510	0	0	38	1	
13	0	0	0	0	509	509	0	0	38	1	
14	0	0	0	0	517	509	0	0	38	1	
15	0	0	0	0	514	509	0	0	38	1	
0	0	0	0	0	505	509	0	0	38	1	
1	0	0	0	0	513	508	0	0	38	1	
2	0	0	0	0	517	507	0	0	38	1	
3	0	0	0	0	515	506	0	0	38	1	
4	0	0	0	0	514	507	0	0	38	1	
5	0	0	0	0	495	509	0	0	38	1	
6	0	0	0	0	498	510	0	0	38	1	
7	0	0	0	0	503	510	0	0	38	1	
8	0	0	0	0	500	511	0	0	38	1	
9	0	0	0	0	505	511	0	0	38	1	
10	0	0	0	0	510	511	0	0	38	1	
11	0	0	0	0	518	513	0	0	38	1	
12	0	0	0	0	535	513	0	0	38	1	
13	0	0	0	0	535	511	0	0	38	1	
14	0	0	0	0	530	509	0	0	38	1	
15	0	0	0	0	521	509	0	0	38	1	
0	0	0	0	0	526	509	0	0	38	1	
1	0	0	0	0	519	509	0	0	38	1	
2	0	0	0	0	511	508	0	0	38	1	
3	0	0	0	0	507	507	0	0	38	1	
4	0	0	0	0	502	508	0	0	38	1	
5	0	0	0	0	510	507	0	0	38	1	
6	0	0	0	0	508	507	0	0	38	1	
7	0	0	0	0	492	507	0	0	38	1	
8	0	0	0	0	505	508	0	0	38	1	
9	0	0	0	0	507	509	0	0	38	1	
10	0	0	0	0	507	510	0	0	38	1	
11	0	0	0	0	500	510	0	0	38	1	
12	0	0	0	0	514	510	0	0	38	1	
13	0	0	0	0	521	508	0	0	38	1	
14	0	0	0	0	539	508	0	0	38	1	
15	0	0	0	0	529	509	0	0	38	1	
0	0	0	0	0	492	509	0	0	38	1	
1	0	0	0	0	455	508	0	0	38	1	
2	0	0	0	0	450	507	0	0	38	1	
3	0	0	0	0	460	507	0	0	38	1	
4	0	0	0	0	470	506	0	0	38	1	
5	0	0	0	0	476	507	0	0	38	1	
6	0	0	0	0	504	507	0	0	38	1	
7	0	0	0	0	541	508	0	0	38	1	
8	0	0	0	0	536	508	0	0	38	1	
9	0	0	0	0	521	508	0	0	38	1	
10	0	0	0	0	500	508	0	0	38	1	
11	0	0	0	0	522	509	0	0	38	1	
12	0	0	0	0	514	510	0	0	38	1	
13	0	0	0	0	520	509	0	0	38	1	
14	0	0	0	0	523	509	0	0	38	1	
15	0	0	0	0	526	509	0	0	38	1	
0	0	0	0	0	527	509	0	0	38	1	
1	0	0	0	0	559	509	0	0	38	1	
2	0	0	0	0	542	508	0	0	38	1	
3	0	0	0	0	492	507	0	0	38	1	
4	0	0	0	0	474	508	0	0	38	1	
5	0	0	0	0	476	506	0	0	38	1	
6	0	0	0	0	485	504	0	0	38	1	
7	0	0	0	0	520	506	0	0	38	1	
8	0	0	0	0	544	506	0	0	38	1	
9	0	0	0	0	528	506	0	0	38	1	
10	0	0	0	0	492	505	0	0	38	1	
11	0	0	0	0	480	508	0	0	38	1	
12	0	0	0	0	489	508	0	0	38	1	
13	0	0	0	0	500	508	0	0	38	1	
14	0	0	0	0	506	506	0	0	38	1	
15	0	0	0	0	502	507	0	0	38	1	
0	0	0	0	0	497	505	0	0	38	1	
1	0	0	0	0	505	504	0	0	38	1	
2	0	0	0	0	502	504	0	0	38	1	
3	0	0	0	0	512	502	0	0	38	1	
4	0	0	0	0	536	503	0	0	38	1	
5	0	0	0	0	543	503	0	0	38	1	
6	0	0	0	0	530	505	0	0	38	1	
7	0	0	0	0	519	504	0	0	38	1	
8	0	0	0	0	498	505	0	0	38	1	
9	0	0	0	0	492	505	0	0	38	1	
10	0	0	0	0	503	506	0	0	38	1	
11	0	0	0	0	512	505	0	0	38	1	
12	0	0	0	0	512	508	0	0	38	1	
13	0	0	0	0	516	507	0	0	38	1	
14	0	0	0	0	504	507	0	0	38	1	
15	0	0	0	0	503	508	0	0	38	1	
0	0	0	0	0	492	510	0	0	38	1	
1	0	0	0	0	491	509	0	0	38	1	
2	0	0	0	0	509	509	0	0	38	1	
3	0	0	0	0	511	508	0	0	38	1	
4	0	0	0	0	510	505	0	0	38	1	
5	0	0	0	0	504	506	0	0	38	1	
6	0	0	0	0	502	506	0	0	38	1	
7	0	0	0	0	511	504	0	0	38	1	
8	0	0	0	0	513	505	0	0	38	1	
9	0	0	0	0	510	506	0	0	38	1	
10	0	0	0	0	501	507	0	0	38	1	
11	0	0	0	0	503	507	0	0	38	1	
12	0	0	0	0	517	506	0	0	38	1	
13	0	0	0	0	543	507	0	0	38	1	
14	0	0	0	0	568	506	0	0	38	1	
15	0	0	0	0	569	508	0	0	38	1	
0	0	0	0	0	551	508	0	0	38	1	
1	0	0	0	0	525	509	0	0	38	1	
2	0	0	0	0	503	510	0	0	38	1	
3	0	0	0	0	476	509	0	0	38	1	
4	0	0	0	0	443	509	0	0	38	1	
5	0	0	0	0	461	507	0	0	38	1	
6	0	0	0	0	504	505	0	302	38	1	
7	0	0	0	0	513	507	0	774	38	1	
8	0	0	0	0	513	507	0	1018	38	1	
9	0	0	0	0	507	508	0	1018	38	1	
10	0	0	0	0	479	507	0	1018	38	1	
11	0	0	0	0	479	509	0	1018	38	1	
12	0	0	0	0	486	508	0	1018	38	1	
13	0	0	0	0	517	508	0	1018	38	1	
14	0	0	0	0	526	509	0	1018	38	1	
15	0	0	0	0	531	510	0	1018	38	1	
0	0	0	0	0	537	506	0	591	38	1	
1	0	0	0	0	552	508	0	0	38	1	
2	0	0	0	0	516	508	0	0	38	1	
3	0	0	0	0	495	509	0	0	38	1	
4	0	0	0	0	501	509	0	0	38	1	
5	0	0	0	0	503	505	0	0	38	1	
6	0	0	0	0	500	504	0	0	38	1	
7	0	0	0	0	492	505	0	0	38	1	
8	0	0	0	0	487	504	0	0	38	1	
9	0	0	0	0	489	503	0	0	38	1	
10	0	0	0	0	489	504	0	0	38	1	
11	0	0	0	0	499	505	0	0	38	1	
12	0	0	0	0	510	508	0	0	38	1	
13	0	0	0	0	489	509	0	0	38	1	
14	0	0	0	0	480	509	0	0	38	1	
15	0	0	0	0	513	508	0	0	38	1	
0	0	0	0	0	527	510	0	0	38	1	
1	0	0	0	0	523	508	0	0	38	1	
2	0	0	0	0	521	508	0	0	38	1	
3	0	0	0	0	518	508	0	0	38	1	
4	0	0	0	0	523	508	0	0	38	1	
5	0	0	0	0	530	508	0	0	38	1	
6	0	0	0	0	524	508	0	0	38	1	
7	0	0	0	0	514	508	0	0	38	1	
8	0	0	0	0	504	507	0	0	38	1	
9	0	0	0	0	512	507	0	0	38	1	
10	0	0	0	0	530	508	0	150	38	1	
11	0	0	0	0	538	508	0	420	38	1	
12	0	0	0	0	519	508	0	539	38	1	
13	0	0	0	0	501	509	0	598	38	1	
14	0	0	0	0	492	508	0	627	38	1	
15	0	0	0	0	502	508	0	593	38	1	
0	0	0	0	0	508	511	0	550	38	1	
1	0	0	0	0	508	511	0	683	38	1	
2	0	0	0	0	512	511	0	775	38	1	
3	0	0	0	0	516	509	0	925	38	1	
4	0	0	0	0	508	511	0	1017	38	1	
5	0	0	0	0	515	508	0	1018	38	1	
6	0	0	0	0	505	508	0	1018	38	1	
7	0	0	0	0	475	507	0	1018	38	1	
8	0	0	0	0	468	506	0	1018	38	1	
9	0	0	0	0	488	506	0	1018	38	1	
10	0	0	0	0	519	508	0	1018	38	1	
11	0	0	0	0	539	508	0	1018	38	1	
12	0	0	0	0	534	509	0	1018	38	1	
13	0	0	0	0	521	508	0	1018	38	1	
14	0	0	0	0	508	508	0	1018	38	1	
15	0	0	0	0	502	509	0	1018	38	1	
0	0	0	0	0	496	509	0	1018	38	1	
1	0	0	0	0	510	509	0	1018	38	1	
2	0	0	0	0	513	508	0	1018	38	1	
3	0	0	0	0	515	510	0	1018	38	1	
4	0	0	0	0	529	511	0	1018	38	1	
5	0	0	0	0	538	508	0	1018	38	1	
6	0	0	0	0	539	505	0	1018	38	1	
7	0	0	0	0	526	506	0	1018	38	1	
8	0	0	0	0	511	505	0	1018	38	1	
9	0	0	0	0	481	504	0	1018	38	1	
10	0	0	0	0	458	504	0	1018	38	1	
11	0	0	0	0	465	504	0	1018	38	1	
12	0	0	0	0	483	504	0	1018	38	1	
13	0	0	0	0	500	504	0	1018	38	1	
14	0	0	0	0	505	506	0	1018	38	1	
15	0	0	0	0	508	505	0	1018	38	1	
0	0	0	0	0	514	506	0	1018	38	1	
1	0	0	0	0	509	504	0	1018	38	1	
2	0	0	0	0	506	506	0	1018	38	1	
3	0	0	0	0	531	505	0	1018	38	1	
4	0	0	0	0	539	506	0	1018	38	1	
5	0	0	0	0	523	507	0	1018	38	1	
6	0	0	0	0	516	506	0	1018	38	1	
7	0	0	0	0	498	506	0	1018	38	1	
8	0	0	0	0	501	505	0	1018	38	1	
9	0	0	0	0	509	504	0	1018	38	1	
10	0	0	0	0	514	505	0	1018	38	1	
11	0	0	0	0	524	504	0	1018	38	1	
12	0	0	0	0	512	502	0	1018	38	1	
13	0	0	0	0	504	503	0	1018	38	1	
14	0	0	0	0	505	503	0	1018	38	1	
15	0	0	0	0	515	506	0	1018	38	1	
0	0	0	0	0	522	509	0	1018	38	1	
1	0	0	0	0	511	508	0	1018	38	1	
2	0	0	0	0	521	507	0	1018	38	1	
3	0	0	0	0	529	508	0	1018	38	1	
4	0	0	0	0	511	508	0	1018	38	1	
5	0	0	0	0	495	508	0	1018	38	1	
6	0	0	0	0	477	508	0	1018	38	1	
7	0	0	0	0	465	508	0	1018	38	1	
8	0	0	0	0	488	506	0	930	38	1	
9	0	0	0	0	496	507	0	908	38	1	
10	0	0	0	0	503	504	0	914	38	1	
11	0	0	0	0	507	504	0	1018	38	1	
12	0	0	0	0	501	507	0	1018	38	1	
13	0	0	0	0	490	508	0	1018	38	1	
14	0	0	0	0	498	509	0	1018	38	1	
15	0	0	0	0	514	510	0	1018	38	1	
0	0	0	0	0	537	511	0	1018	38	1	
1	0	0	0	0	552	511	0	1017	38	1	
2	0	0	0	0	550	511	0	1018	38	1	
3	0	0	0	0	528	512	0	1018	38	1	
4	0	0	0	0	494	511	0	1018	38	1	
5	0	0	0	0	481	511	0	1017	38	1	
6	0	0	0	0	506	510	0	1018	38	1	
7	0	0	0	0	511	511	0	814	38	1	
8	0	0	0	0	521	510	0	543	38	1	
9	0	0	0	0	533	509	0	460	38	1	
10	0	0	0	0	519	508	0	490	38	1	
11	0	0	0	0	496	508	0	643	38	1	
12	0	0	0	0	505	508	0	964	38	1	
13	0	0	0	0	534	507	0	1018	38	1	
14	0	0	0	0	521	507	0	1018	38	1	
15	0	0	0	0	523	508	0	1018	38	1	
0	0	0	0	0	515	508	0	1018	38	1	
1	0	0	0	0	502	509	0	1018	38	1	
2	0	0	0	0	491	509	0	1017	38	1	
3	0	0	0	0	493	508	0	669	38	1	
4	0	0	0	0	487	508	0	134	38	1	
5	0	0	0	0	496	505	0	0	38	1	
6	0	0	0	0	500	506	0	0	38	1	
7	0	0	0	0	495	508	0	0	38	1	
8	0	0	0	0	492	508	0	0	38	1	
9	0	0	0	0	503	507	0	0	38	1	
10	0	0	0	0	505	507	0	0	38	1	
11	0	0	0	0	499	507	0	0	38	1	
12	0	0	0	0	502	507	0	0	38	1	
13	0	0	0	0	513	506	0	216	38	1	
14	0	0	0	0	525	509	0	365	38	1	
15	0	0	0	0	519	510	0	328	38	1	
0	0	0	0	0	506	510	0	284	38	1	
1	0	0	0	0	514	511	0	99	38	1	
2	0	0	0	0	520	511	0	0	38	1	
3	0	0	0	0	512	513	0	0	38	1	
4	0	0	0	0	506	511	0	0	38	1	
5	0	0	0	0	507	508	0	0	38	1	
6	0	0	0	0	514	507	0	0	38	1	
7	0	0	0	0	512	508	0	0	38	1	
8	0	0	0	0	500	508	0	0	38	1	
9	0	0	0	0	508	508	0	0	38	1	
10	0	0	0	0	519	507	0	0	38	1	
11	0	0	0	0	524	507	0	0	38	1	
12	0	0	0	0	512	507	0	0	38	1	
13	0	0	0	0	508	507	0	0	38	1	
14	0	0	0	0	518	508	0	0	38	1	
15	0	0	0	0	522	509	0	0	38	1	
0	0	0	0	0	528	508	0	0	38	1	
1	0	0	0	0	515	509	0	0	38	1	
2	0	0	0	0	514	509	0	328	38	1	
3	0	0	0	0	521	509	0	399	38	1	
4	0	0	0	0	510	511	0	451	38	1	
5	0	0	0	0	485	510	0	475	38	1	
6	0	0	0	0	495	508	0	457	38	1	
7	0	0	0	0	498	508	0	413	38	1	
8	0	0	0	0	493	506	0	357	38	1	
9	0	0	0	0	497	507	0	420	38	1	
10	0	0	0	0	511	506	0	460	38	1	
11	0	0	0	0	524	507	0	479	38	1	
12	0	0	0	0	527	506	0	541	38	1	
13	0	0	0	0	515	508	0	635	38	1	
14	0	0	0	0	509	508	0	851	38	1	
15	0	0	0	0	508	509	0	1018	38	1	
0	0	0	0	0	496	508	0	1018	38	1	
1	0	0	0	0	484	510	0	1018	38	1	
2	0	0	0	0	507	509	0	1018	38	1	
3	0	0	0	0	496	508	0	1018	38	1	
4	0	0	0	0	482	509	0	681	38	1	
5	0	0	0	0	505	508	0	120	38	1	
6	0	0	0	0	514	508	0	0	38	1	
7	0	0	0	0	516	508	0	0	38	1	
8	0	0	0	0	519	510	0	0	38	1	
9	0	0	0	0	507	511	0	0	38	1	
10	0	0	0	0	496	508	0	0	38	1	
11	0	0	0	0	506	504	0	0	38	1	
12	0	0	0	0	505	504	0	0	38	1	
13	0	0	0	0	510	504	0	0	38	1	
14	0	0	0	0	517	505	0	0	38	1	
15	0	0	0	0	514	504	0	0	38	1	
0	0	0	0	0	510	504	0	0	38	1	
1	0	0	0	0	499	504	0	0	38	1	
2	0	0	0	0	511	505	0	0	38	1	
3	0	0	0	0	551	505	0	0	38	1	
4	0	0	0	0	555	505	0	0	38	1	
5	0	0	0	0	547	504	0	0	38	1	
6	0	0	0	0	550	504	0	0	38	1	
7	0	0	0	0	523	506	0	0	38	1	
8	0	0	0	0	476	506	0	0	38	1	
9	0	0	0	0	416	505	0	0	38	1	
10	0	0	0	0	399	507	0	0	38	1	
11	0	0	0	0	457	508	0	0	38	1	
12	0	0	0	0	505	510	0	0	38	1	
13	0	0	0	0	515	510	0	0	38	1	
14	0	0	0	0	519	508	0	0	38	1	
15	0	0	0	0	544	505	0	0	38	1	
0	0	0	0	0	548	507	0	0	38	1	
1	0	0	0	0	531	507	0	0	38	1	
2	0	0	0	0	521	509	0	0	38	1	
3	0	0	0	0	512	510	0	0	38	1	
4	0	0	0	0	492	509	0	0	38	1	
5	0	0	0	0	498	509	0	0	38	1	
6	0	0	0	0	507	511	0	0	38	1	
7	0	0	0	0	510	510	0	0	38	1	
8	0	0	0	0	527	508	0	0	38	1	
9	0	0	0	0	523	508	0	0	38	1	
10	0	0	0	0	524	507	0	0	38	1	
11	0	0	0	0	523	507	0	0	38	1	
12	0	0	0	0	512	505	0	0	38	1	
13	0	0	0	0	510	503	0	0	38	1	
14	0	0	0	0	507	501	0	0	38	1	
15	0	0	0	0	509	502	0	0	38	1	
0	0	0	0	0	516	503	0	0	38	1	
1	0	0	0	0	512	504	0	0	38	1	
2	0	0	0	0	509	505	0	404	38	1	
3	0	0	0	0	503	509	0	987	38	1	
4	0	0	0	0	514	510	0	1018	38	1	
5	0	0	0	0	522	509	0	1018	38	1	
6	0	0	0	0	513	508	0	1018	38	1	
7	0	0	0	0	491	508	0	1018	38	1	
8	0	0	0	0	476	508	0	1018	38	1	
9	0	0	0	0	468	508	0	1018	38	1	
10	0	0	0	0	470	507	0	1018	38	1	
11	0	0	0	0	486	509	0	1018	38	1	
12	0	0	0	0	504	508	0	1018	38	1	
13	0	0	0	0	537	505	0	1018	38	1	
14	0	0	0	0	558	505	0	779	38	1	
15	0	0	0	0	545	504	0	535	38	1	
0	0	0	0	0	543	504	0	483	38	1	
1	0	0	0	0	528	504	0	465	38	1	
2	0	0	0	0	513	506	0	589	38	1	
3	0	0	0	0	497	509	0	885	38	1	
4	0	0	0	0	495	510	0	1018	38	1	
5	0	0	0	0	484	511	0	1018	38	1	
6	0	0	0	0	489	511	0	1018	38	1	
7	0	0	0	0	506	510	0	1018	38	1	
8	0	0	0	0	535	509	0	1018	38	1	
9	0	0	0	0	551	509	0	1018	38	1	
10	0	0	0	0	552	509	0	1018	38	1	
11	0	0	0	0	526	510	0	1018	38	1	
12	0	0	0	0	507	511	0	1018	38	1	
13	0	0	0	0	475	508	0	1018	38	1	
14	0	0	0	0	466	506	0	1018	38	1	
15	0	0	0	0	483	506	0	640	38	1	
0	0	0	0	0	504	506	0	447	38	1	
1	0	0	0	0	509	505	0	264	38	1	
2	0	0	0	0	507	507	0	0	38	1	
3	0	0	0	0	504	506	0	0	38	1	
4	0	0	0	0	510	510	0	0	38	1	
5	0	0	0	0	507	511	0	0	38	1	
6	0	0	0	0	476	511	0	0	38	1	
7	0	0	0	0	465	511	0	0	38	1	
8	0	0	0	0	467	509	0	0	38	1	
9	0	0	0	0	483	510	0	0	38	1	
10	0	0	0	0	513	509	0	0	38	1	
11	0	0	0	0	544	508	0	0	38	1	
12	0	0	0	0	548	508	0	0	38	1	
13	0	0	0	0	551	509	0	0	38	1	
14	0	0	0	0	532	510	0	0	38	1	
15	0	0	0	0	512	509	0	0	38	1	
0	0	0	0	0	500	507	0	0	38	1	
1	0	0	0	0	512	507	0	0	38	1	
2	0	0	0	0	519	507	0	0	38	1	
3	0	0	0	0	504	507	0	775	38	1	
4	0	0	0	0	492	508	0	1018	38	1	
5	0	0	0	0	503	508	0	1018	38	1	
6	0	0	0	0	507	508	0	1018	38	1	
7	0	0	0	0	499	509	0	1018	38	1	
8	0	0	0	0	519	510	0	1018	38	1	
9	0	0	0	0	550	509	0	1018	38	1	
10	0	0	0	0	551	510	0	1018	38	1	
11	0	0	0	0	528	508	0	1018	38	1	
12	0	0	0	0	508	508	0	1018	38	1	
13	0	0	0	0	477	508	0	783	38	1	
14	0	0	0	0	471	508	0	345	38	1	
15	0	0	0	0	488	508	0	0	38	1	
0	0	0	0	0	501	510	0	0	38	1	
1	0	0	0	0	501	509	0	0	38	1	
2	0	0	0	0	524	509	0	0	38	1	
3	0	0	0	0	527	507	0	0	38	1	
4	0	0	0	0	511	508	0	0	38	1	
5	0	0	0	0	517	508	0	370	38	1	
6	0	0	0	0	527	510	0	634	38	1	
7	0	0	0	0	530	511	0	792	38	1	
8	0	0	0	0	520	510	0	795	38	1	
9	0	0	0	0	493	511	0	717	38	1	
10	0	0	0	0	493	512	0	612	38	1	
11	0	0	0	0	494	512	0	412	38	1	
12	0	0	0	0	474	510	0	167	38	1	
13	0	0	0	0	472	509	0	0	38	1	
14	0	0	0	0	486	509	0	0	38	1	
15	0	0	0	0	507	508	0	0	38	1	
0	0	0	0	0	518	505	0	0	38	1	
1	0	0	0	0	526	504	0	0	38	1	
2	0	0	0	0	524	505	0	0	38	1	
3	0	0	0	0	519	505	0	0	38	1	
4	0	0	0	0	512	505	0	0	38	1	
5	0	0	0	0	519	506	0	0	38	1	
6	0	0	0	0	529	507	0	0	38	1	
7	0	0	0	0	536	507	0	592	38	1	
8	0	0	0	0	533	507	0	1018	38	1	
9	0	0	0	0	537	509	0	1018	38	1	
10	0	0	0	0	544	509	0	1018	38	1	
11	0	0	0	0	547	508	0	1018	38	1	
12	0	0	0	0	529	512	0	1018	38	1	
13	0	0	0	0	524	511	0	1018	38	1	
14	0	0	0	0	493	512	0	1018	38	1	
15	0	0	0	0	444	512	0	1018	38	1	
0	0	0	0	0	439	510	0	956	38	1	
1	0	0	0	0	436	508	0	898	38	1	
2	0	0	0	0	442	508	0	847	38	1	
3	0	0	0	0	467	506	0	816	38	1	
4	0	0	0	0	495	506	0	893	38	1	
5	0	0	0	0	508	507	0	1017	38	1	
6	0	0	0	0	507	507	0	1018	38	1	
7	0	0	0	0	529	510	0	1018	38	1	
8	0	0	0	0	535	511	0	1018	38	1	
9	0	0	0	0	527	512	0	1018	38	1	
10	0	0	0	0	528	510	0	1018	38	1	
11	0	0	0	0	543	510	0	1018	38	1	
12	0	0	0	0	536	510	0	1018	38	1	
13	0	0	0	0	517	510	0	739	38	1	
14	0	0	0	0	521	509	0	155	38	1	
15	0	0	0	0	553	511	0	0	38	1	
0	0	0	0	0	551	509	0	0	38	1	
1	0	0	0	0	511	508	0	0	38	1	
2	0	0	0	0	472	508	0	0	38	1	
3	0	0	0	0	465	507	0	0	38	1	
4	0	0	0	0	476	508	0	0	38	1	
5	0	0	0	0	480	509	0	0	38	1	
6	0	0	0	0	488	511	0	0	38	1	
7	0	0	0	0	515	510	0	0	38	1	
8	0	0	0	0	526	513	0	0	38	1	
9	0	0	0	0	526	513	0	519	38	1	
10	0	0	0	0	532	513	0	872	38	1	
11	0	0	0	0	547	510	0	1018	38	1	
12	0	0	0	0	551	510	0	1018	38	1	
13	0	0	0	0	543	508	0	1018	38	1	
14	0	0	0	0	515	507	0	1018	38	1	
15	0	0	0	0	479	508	0	1018	38	1	
0	0	0	0	0	457	508	0	1018	38	1	
1	0	0	0	0	463	506	0	1017	38	1	
2	0	0	0	0	465	504	0	1018	38	1	
3	0	0	0	0	493	504	0	1018	38	1	
4	0	0	0	0	529	504	0	1018	38	1	
5	0	0	0	0	531	504	0	1018	38	1	
6	0	0	0	0	527	504	0	1018	38	1	
7	0	0	0	0	514	507	0	1018	38	1	
8	0	0	0	0	515	508	0	1018	38	1	
9	0	0	0	0	507	506	0	1018	38	1	
10	0	0	0	0	503	509	0	1018	38	1	
11	0	0	0	0	504	510	0	1018	38	1	
12	0	0	0	0	495	510	0	1018	38	1	
13	0	0	0	0	496	510	0	1018	38	1	
14	0	0	0	0	503	507	0	1018	38	1	
15	0	0	0	0	504	508	0	1018	38	1	
0	0	0	0	0	504	510	0	1018	38	1	
1	0	0	0	0	515	509	0	1018	38	1	
2	0	0	0	0	528	508	0	1018	38	1	
3	0	0	0	0	546	508	0	1018	38	1	
4	0	0	0	0	558	509	0	1018	38	1	
5	0	0	0	0	532	507	0	1018	38	1	
6	0	0	0	0	508	507	0	1018	38	1	
7	0	0	0	0	493	506	0	1018	38	1	
8	0	0	0	0	503	509	0	1018	38	1	
9	0	0	0	0	519	512	0	1018	38	1	
10	0	0	0	0	519	512	0	1018	38	1	
11	0	0	0	0	510	512	0	1018	38	1	
12	0	0	0	0	487	510	0	1018	38	1	
13	0	0	0	0	457	508	0	1018	38	1	
14	0	0	0	0	462	508	0	1018	38	1	
15	0	0	0	0	496	507	0	1018	38	1	
0	0	0	0	0	538	507	0	1018	38	1	
1	0	0	0	0	540	507	0	1018	38	1	
2	0	0	0	0	519	507	0	1018	38	1	
3	0	0	0	0	491	508	0	1018	38	1	
4	0	0	0	0	492	508	0	1018	38	1	
5	0	0	0	0	487	508	0	1018	38	1	
6	0	0	0	0	490	508	0	1018	38	1	
7	0	0	0	0	513	505	0	1018	38	1	
8	0	0	0	0	531	507	0	1018	38	1	
9	0	0	0	0	539	509	0	1017	38	1	
10	0	0	0	0	529	509	0	1018	38	1	
11	0	0	0	0	513	511	0	1018	38	1	
12	0	0	0	0	527	511	0	1018	38	1	
13	0	0	0	0	539	512	0	1018	38	1	
14	0	0	0	0	537	512	0	1018	38	1	
15	0	0	0	0	532	511	0	1018	38	1	
0	0	0	0	0	522	511	0	1018	38	1	
1	0	0	0	0	526	511	0	1018	38	1	
2	0	0	0	0	520	511	0	1018	38	1	
3	0	0	0	0	513	510	0	1018	38	1	
4	0	0	0	0	494	508	0	1018	38	1	
5	0	0	0	0	484	507	0	1018	38	1	
6	0	0	0	0	463	504	0	1018	38	1	
7	0	0	0	0	454	503	0	1018	38	1	
8	0	0	0	0	472	505	0	1018	38	1	
9	0	0	0	0	499	508	0	1018	38	1	
10	0	0	0	0	506	508	0	1018	38	1	
11	0	0	0	0	510	507	0	1018	38	1	
12	0	0	0	0	508	509	0	1018	38	1	
13	0	0	0	0	508	510	0	1018	38	1	
14	0	0	0	0	498	509	0	1018	38	1	
15	0	0	0	0	510	508	0	1018	38	1	
0	0	0	0	0	507	506	0	1018	38	1	
1	0	0	0	0	511	505	0	1018	38	1	
2	0	0	0	0	519	506	0	1018	38	1	
3	0	0	0	0	525	508	0	1018	38	1	
4	0	0	0	0	534	507	0	769	38	1	
5	0	0	0	0	523	507	0	235	38	1	
6	0	0	0	0	511	507	0	0	38	1	
7	0	0	0	0	517	506	0	0	38	1	
8	0	0	0	0	515	505	0	0	38	1	
9	0	0	0	0	487	505	0	0	38	1	
10	0	0	0	0	487	505	0	135	38	1	
11	0	0	0	0	494	506	0	194	38	1	
12	0	0	0	0	500	507	0	0	38	1	
13	0	0	0	0	515	508	0	0	38	1	
14	0	0	0	0	519	508	0	0	38	1	
15	0	0	0	0	520	506	0	0	38	1	
0	0	0	0	0	527	505	0	0	38	1	
1	0	0	0	0	536	506	0	0	38	1	
2	0	0	0	0	546	506	0	0	38	1	
3	0	0	0	0	534	507	0	0	38	1	
4	0	0	0	0	508	505	0	0	38	1	
5	0	0	0	0	478	505	0	0	38	1	
6	0	0	0	0	473	503	0	0	38	1	
7	0	0	0	0	488	504	0	0	38	1	
8	0	0	0	0	523	504	0	0	38	1	
9	0	0	0	0	530	504	0	0	38	1	
10	0	0	0	0	521	506	0	0	38	1	
11	0	0	0	0	506	507	0	0	38	1	
12	0	0	0	0	489	508	0	0	38	1	
13	0	0	0	0	484	507	0	80	38	1	
14	0	0	0	0	479	505	0	23	38	1	
15	0	0	0	0	478	506	0	0	38	1	
0	0	0	0	0	496	506	0	0	38	1	
1	0	0	0	0	503	508	0	0	38	1	
2	0	0	0	0	506	509	0	0	38	1	
3	0	0	0	0	505	510	0	0	38	1	
4	0	0	0	0	504	508	0	0	38	1	
5	0	0	0	0	508	508	0	0	38	1	
6	0	0	0	0	511	507	0	0	38	1	
7	0	0	0	0	536	507	0	0	38	1	
8	0	0	0	0	550	506	0	0	38	1	
9	0	0	0	0	539	507	0	0	38	1	
10	0	0	0	0	520	507	0	0	38	1	
11	0	0	0	0	507	505	0	0	38	1	
12	0	0	0	0	510	507	0	0	38	1	
13	0	0	0	0	514	508	0	0	38	1	
14	0	0	0	0	509	506	0	0	38	1	
15	0	0	0	0	518	507	0	0	38	1	
0	0	0	0	0	528	506	0	0	38	1	
1	0	0	0	0	519	507	0	0	38	1	
2	0	0	0	0	499	506	0	0	38	1	
3	0	0	0	0	493	506	0	0	38	1	
4	0	0	0	0	475	507	0	0	38	1	
5	0	0	0	0	480	506	0	0	38	1	
6	0	0	0	0	501	506	0	0	38	1	
7	0	0	0	0	518	506	0	0	38	1	
8	0	0	0	0	529	505	0	0	38	1	
9	0	0	0	0	520	505	0	0	38	1	
10	0	0	0	0	496	504	0	0	38	1	
11	0	0	0	0	481	504	0	0	38	1	
12	0	0	0	0	488	503	0	0	38	1	
13	0	0	0	0	499	504	0	0	38	1	
14	0	0	0	0	522	507	0	0	38	1	
15	0	0	0	0	526	508	0	0	38	1	
0	0	0	0	0	537	507	0	0	38	1	
1	0	0	0	0	538	508	0	0	38	1	
2	0	0	0	0	524	511	0	0	38	1	
3	0	0	0	0	510	511	0	0	38	1	
4	0	0	0	0	506	511	0	0	38	1	
5	0	0	0	0	505	510	0	0	38	1	
6	0	0	0	0	516	509	0	0	38	1	
7	0	0	0	0	509	508	0	0	38	1	
8	0	0	0	0	499	509	0	0	38	1	
9	0	0	0	0	500	508	0	0	38	1	
10	0	0	0	0	496	508	0	0	38	1	
11	0	0	0	0	496	507	0	0	38	1	
12	0	0	0	0	507	507	0	0	38	1	
13	0	0	0	0	512	507	0	0	38	1	
14	0	0	0	0	514	507	0	0	38	1	
15	0	0	0	0	520	508	0	0	38	1	
0	0	0	0	0	515	508	0	0	38	1	
1	0	0	0	0	502	508	0	0	38	1	
2	0	0	0	0	505	506	0	0	38	1	
3	0	0	0	0	518	507	0	0	38	1	
4	0	0	0	0	510	507	0	0	38	1	
5	0	0	0	0	511	507	0	0	38	1	
6	0	0	0	0	508	509	0	0	38	1	
7	0	0	0	0	503	509	0	0	38	1	
8	0	0	0	0	493	509	0	0	38	1	
9	0	0	0	0	512	508	0	0	38	1	
10	0	0	0	0	522	507	0	0	38	1	
11	0	0	0	0	519	506	0	0	38	1	
12	0	0	0	0	517	506	0	0	38	1	
13	0	0	0	0	499	505	0	0	38	1	
14	0	0	0	0	480	506	0	0	38	1	
15	0	0	0	0	497	508	0	0	38	1	
0	0	0	0	0	507	509	0	0	38	1	
1	0	0	0	0	511	508	0	0	38	1	
2	0	0	0	0	537	507	0	0	38	1	
3	0	0	0	0	550	507	0	0	38	1	
4	0	0	0	0	536	506	0	0	38	1	
5	0	0	0	0	529	507	0	0	38	1	
6	0	0	0	0	529	506	0	0	38	1	
7	0	0	0	0	505	506	0	0	38	1	
8	0	0	0	0	466	506	0	0	38	1	
9	0	0	0	0	414	508	0	0	38	1	
10	0	0	0	0	428	508	0	0	38	1	
11	0	0	0	0	483	505	0	0	38	1	
12	0	0	0	0	487	505	0	0	38	1	
13	0	0	0	0	487	507	0	0	38	1	
14	0	0	0	0	496	507	0	0	38	1	
15	0	0	0	0	505	508	0	0	38	1	
0	0	0	0	0	532	510	0	0	38	1	
1	0	0	0	0	560	509	0	0	38	1	
2	0	0	0	0	564	511	0	0	38	1	
3	0	0	0	0	562	511	0	0	38	1	
4	0	0	0	0	545	511	0	0	38	1	
5	0	0	0	0	526	510	0	0	38	1	
6	0	0	0	0	517	510	0	0	38	1	
7	0	0	0	0	528	509	0	0	38	1	
8	0	0	0	0	519	508	0	0	38	1	
9	0	0	0	0	504	507	0	0	38	1	
10	0	0	0	0	500	505	0	0	38	1	
11	0	0	0	0	487	505	0	0	38	1	
12	0	0	0	0	479	505	0	0	38	1	
13	0	0	0	0	497	504	0	0	38	1	
14	0	0	0	0	495	504	0	0	38	1	
15	0	0	0	0	491	505	0	0	38	1	
0	0	0	0	0	488	508	0	0	38	1	
1	0	0	0	0	504	508	0	0	38	1	
2	0	0	0	0	506	508	0	0	38	1	
3	0	0	0	0	525	508	0	0	38	1	
4	0	0	0	0	537	509	0	0	38	1	
5	0	0	0	0	531	511	0	0	38	1	
6	0	0	0	0	508	511	0	0	38	1	
7	0	0	0	0	503	510	0	0	38	1	
8	0	0	0	0	497	509	0	0	38	1	
9	0	0	0	0	492	509	0	0	38	1	
10	0	0	0	0	491	509	0	0	38	1	
11	0	0	0	0	499	508	0	0	38	1	
12	0	0	0	0	501	508	0	0	38	1	
13	0	0	0	0	512	507	0	0	38	1	
14	0	0	0	0	521	507	0	0	38	1	
15	0	0	0	0	516	507	0	0	38	1	
0	0	0	0	0	518	510	0	0	38	1	
1	0	0	0	0	523	510	0	0	38	1	
2	0	0	0	0	524	511	0	0	38	1	
3	0	0	0	0	524	511	0	0	38	1	
4	0	0	0	0	518	509	0	0	38	1	
5	0	0	0	0	519	510	0	0	38	1	
6	0	0	0	0	516	508	0	0	38	1	
7	0	0	0	0	508	508	0	0	38	1	
8	0	0	0	0	518	509	0	0	38	1	
9	0	0	0	0	507	508	0	0	38	1	
10	0	0	0	0	496	508	0	0	38	1	
11	0	0	0	0	492	507	0	0	38	1	
12	0	0	0	0	491	506	0	0	38	1	
13	0	0	0	0	502	506	0	0	38	1	
14	0	0	0	0	499	505	0	0	38	1	
15	0	0	0	0	500	505	0	0	38	1	
0	0	0	0	0	513	505	0	0	38	1	
1	0	0	0	0	531	506	0	550	38	1	
2	0	0	0	0	522	508	0	990	38	1	
3	0	0	0	0	529	509	0	1018	38	1	
4	0	0	0	0	523	508	0	1018	38	1	
5	0	0	0	0	525	508	0	1018	38	1	
6	0	0	0	0	513	507	0	1018	38	1	
7	0	0	0	0	487	508	0	1018	38	1	
8	0	0	0	0	492	508	0	1018	38	1	
9	0	0	0	0	510	509	0	1018	38	1	
10	0	0	0	0	534	507	0	1018	38	1	
11	0	0	0	0	547	510	0	1018	38	1	
12	0	0	0	0	537	509	0	1018	38	1	
13	0	0	0	0	511	509	0	1018	38	1	
14	0	0	0	0	483	508	0	1018	38	1	
15	0	0	0	0	469	507	0	1018	38	1	
0	0	0	0	0	487	509	0	1018	38	1	
1	0	0	0	0	503	513	0	1018	38	1	
2	0	0	0	0	494	513	0	1018	38	1	
3	0	0	0	0	487	514	0	1018	38	1	
4	0	0	0	0	467	512	0	1018	38	1	
5	0	0	0	0	472	512	0	1018	38	1	
6	0	0	0	0	505	511	0	1018	38	1	
7	0	0	0	0	499	508	0	1018	38	1	
8	0	0	0	0	501	509	0	1018	38	1	
9	0	0	0	0	541	507	0	1018	38	1	
10	0	0	0	0	540	505	0	1018	38	1	
11	0	0	0	0	541	507	0	1018	38	1	
12	0	0	0	0	533	504	0	1018	38	1	
13	0	0	0	0	510	507	0	1017	38	1	
14	0	0	0	0	492	506	0	1018	38	1	
15	0	0	0	0	477	506	0	1018	38	1	
0	0	0	0	0	487	508	0	1018	38	1	
1	0	0	0	0	501	508	0	1018	38	1	
2	0	0	0	0	494	508	0	1018	38	1	
3	0	0	0	0	537	508	0	1018	38	1	
4	0	0	0	0	538	508	0	1018	38	1	
5	0	0	0	0	530	508	0	1018	38	1	
6	0	0	0	0	522	508	0	1018	38	1	
7	0	0	0	0	511	508	0	1018	38	1	
8	0	0	0	0	502	509	0	1018	38	1	
9	0	0	0	0	493	508	0	1018	38	1	
10	0	0	0	0	499	510	0	1018	38	1	
11	0	0	0	0	519	508	0	1018	38	1	
12	0	0	0	0	521	508	0	1018	38	1	
13	0	0	0	0	522	505	0	1018	38	1	
14	0	0	0	0	512	504	0	1018	38	1	
15	0	0	0	0	514	504	0	1018	38	1	
0	0	0	0	0	485	504	0	1018	38	1	
1	0	0	0	0	486	505	0	1018	38	1	
2	0	0	0	0	495	506	0	1018	38	1	
3	0	0	0	0	497	504	0	1018	38	1	
4	0	0	0	0	505	506	0	1018	38	1	
5	0	0	0	0	515	507	0	1018	38	1	
6	0	0	0	0	526	507	0	1018	38	1	
7	0	0	0	0	551	508	0	1018	38	1	
8	0	0	0	0	543	507	0	1018	38	1	
9	0	0	0	0	538	508	0	1018	38	1	
10	0	0	0	0	518	509	0	1018	38	1	
11	0	0	0	0	512	511	0	1018	38	1	
12	0	0	0	0	497	510	0	1018	38	1	
13	0	0	0	0	491	509	0	1018	38	1	
14	0	0	0	0	485	508	0	1018	38	1	
15	0	0	0	0	493	506	0	1018	38	1	
0	0	0	0	0	497	505	0	1018	38	1	
1	0	0	0	0	509	506	0	1018	38	1	
2	0	0	0	0	526	508	0	1018	38	1	
3	0	0	0	0	533	510	0	1018	38	1	
4	0	0	0	0	510	511	0	1018	38	1	
5	0	0	0	0	512	512	0	1018	38	1	
6	0	0	0	0	492	513	0	1018	38	1	
7	0	0	0	0	483	512	0	1018	38	1	
8	0	0	0	0	504	513	0	1018	38	1	
9	0	0	0	0	504	513	0	1018	38	1	
10	0	0	0	0	501	513	0	753	38	1	
11	0	0	0	0	506	511	0	297	38	1	
12	0	0	0	0	500	511	0	0	38	1	
13	0	0	0	0	518	510	0	0	38	1	
14	0	0	0	0	526	508	0	0	38	1	
15	0	0	0	0	536	507	0	0	38	1	
0	0	0	0	0	542	505	0	0	38	1	
1	0	0	0	0	537	504	0	0	38	1	
2	0	0	0	0	527	505	0	411	38	1	
3	0	0	0	0	519	506	0	1016	38	1	
4	0	0	0	0	517	507	0	1018	38	1	
5	0	0	0	0	508	510	0	1018	38	1	
6	0	0	0	0	513	510	0	1018	38	1	
7	0	0	0	0	507	511	0	1018	38	1	
8	0	0	0	0	501	509	0	1018	38	1	
9	0	0	0	0	490	510	0	1018	38	1	
10	0	0	0	0	465	510	0	1018	38	1	
11	0	0	0	0	464	510	0	1018	38	1	
12	0	0	0	0	476	512	0	1018	38	1	
13	0	0	0	0	485	513	0	1018	38	1	
14	0	0	0	0	505	514	0	1018	38	1	
15	0	0	0	0	501	511	0	1018	38	1	
0	0	0	0	0	509	510	0	1018	38	1	
1	0	0	0	0	522	508	0	1017	38	1	
2	0	0	0	0	518	507	0	1018	38	1	
3	0	0	0	0	511	508	0	1018	38	1	
4	0	0	0	0	510	507	0	1018	38	1	
5	0	0	0	0	511	507	0	1018	38	1	
6	0	0	0	0	513	508	0	1018	38	1	
7	0	0	0	0	500	507	0	1018	38	1	
8	0	0	0	0	505	508	0	1018	38	1	
9	0	0	0	0	515	509	0	1018	38	1	
10	0	0	0	0	512	509	0	1018	38	1	
11	0	0	0	0	518	507	0	1018	38	1	
12	0	0	0	0	527	508	0	1018	38	1	
13	0	0	0	0	529	508	0	1018	38	1	
14	0	0	0	0	529	508	0	1018	38	1	
15	0	0	0	0	531	505	0	1018	38	1	
0	0	0	0	0	524	506	0	1018	38	1	
1	0	0	0	0	500	505	0	1018	38	1	
2	0	0	0	0	466	507	0	1018	38	1	
3	0	0	0	0	487	505	0	1018	38	1	
4	0	0	0	0	510	508	0	1018	38	1	
5	0	0	0	0	511	509	0	1018	38	1	
6	0	0	0	0	500	509	0	1018	38	1	
7	0	0	0	0	506	509	0	1018	38	1	
8	0	0	0	0	504	508	0	1018	38	1	
9	0	0	0	0	500	510	0	1018	38	1	
10	0	0	0	0	504	509	0	1018	38	1	
11	0	0	0	0	518	509	0	1018	38	1	
12	0	0	0	0	516	508	0	1018	38	1	
13	0	0	0	0	510	509	0	1018	38	1	
14	0	0	0	0	508	508	0	1018	38	1	
15	0	0	0	0	531	508	0	1018	38	1	
0	0	0	0	0	548	507	0	1018	38	1	
1	0	0	0	0	547	508	0	1018	38	1	
2	0	0	0	0	538	506	0	1018	38	1	
3	0	0	0	0	510	505	0	1018	38	1	
4	0	0	0	0	482	505	0	1018	38	1	
5	0	0	0	0	475	505	0	1018	38	1	
6	0	0	0	0	484	508	0	1018	38	1	
7	0	0	0	0	481	509	0	1018	38	1	
8	0	0	0	0	511	509	0	1018	38	1	
9	0	0	0	0	517	508	0	1018	38	1	
10	0	0	0	0	513	508	0	1018	38	1	
11	0	0	0	0	504	510	0	1018	38	1	
12	0	0	0	0	490	510	0	1018	38	1	
13	0	0	0	0	499	509	0	1018	38	1	
14	0	0	0	0	510	508	0	1018	38	1	
15	0	0	0	0	511	507	0	1018	38	1	
0	0	0	0	0	516	508	0	1018	38	1	
1	0	0	0	0	512	507	0	1018	38	1	
2	0	0	0	0	506	505	0	1018	38	1	
3	0	0	0	0	520	503	0	1017	38	1	
4	0	0	0	0	538	504	0	1018	38	1	
5	0	0	0	0	536	506	0	1018	38	1	
6	0	0	0	0	531	507	0	1018	38	1	
7	0	0	0	0	527	508	0	1018	38	1	
8	0	0	0	0	522	511	0	1018	38	1	
9	0	0	0	0	521	512	0	1018	38	1	
10	0	0	0	0	518	512	0	1018	38	1	
11	0	0	0	0	511	512	0	1018	38	1	
12	0	0	0	0	492	511	0	1018	38	1	
13	0	0	0	0	464	510	0	1018	38	1	
14	0	0	0	0	445	510	0	1017	38	1	
15	0	0	0	0	465	510	0	664	38	1	
0	0	0	0	0	504	509	0	206	38	1	
1	0	0	0	0	516	507	0	0	38	1	
2	0	0	0	0	519	506	0	0	38	1	
3	0	0	0	0	519	503	0	0	38	1	
4	0	0	0	0	532	504	0	0	38	1	
5	0	0	0	0	523	504	0	0	38	1	
6	0	0	0	0	511	504	0	0	38	1	
7	0	0	0	0	506	507	0	0	38	1	
8	0	0	0	0	501	508	0	0	38	1	
9	0	0	0	0	485	509	0	0	38	1	
10	0	0	0	0	480	508	0	0	38	1	
11	0	0	0	0	483	509	0	0	38	1	
12	0	0	0	0	498	509	0	0	38	1	
13	0	0	0	0	515	510	0	0	38	1	
14	0	0	0	0	527	511	0	0	38	1	
15	0	0	0	0	536	510	0	0	38	1	
0	0	0	0	0	543	508	0	0	38	1	
1	0	0	0	0	527	508	0	0	38	1	
2	0	0	0	0	511	507	0	0	38	1	
3	0	0	0	0	520	508	0	0	38	1	
4	0	0	0	0	524	504	0	0	38	1	
5	0	0	0	0	502	504	0	0	38	1	
6	0	0	0	0	507	504	0	231	38	1	
7	0	0	0	0	505	505	0	1018	38	1	
8	0	0	0	0	493	507	0	1018	38	1	
9	0	0	0	0	473	508	0	1018	38	1	
10	0	0	0	0	477	508	0	1018	38	1	
11	0	0	0	0	513	508	0	1018	38	1	
12	0	0	0	0	527	508	0	1018	38	1	
13	0	0	0	0	521	508	0	1018	38	1	
14	0	0	0	0	530	508	0	1018	38	1	
15	0	0	0	0	538	508	0	1018	38	1	
0	0	0	0	0	534	510	0	1018	38	1	
1	0	0	0	0	530	509	0	1018	38	1	
2	0	0	0	0	517	507	0	1017	38	1	
3	0	0	0	0	516	507	0	500	38	1	
4	0	0	0	0	528	505	0	184	38	1	
5	0	0	0	0	522	503	0	0	38	1	
6	0	0	0	0	499	503	0	0	38	1	
7	0	0	0	0	493	503	0	0	38	1	
8	0	0	0	0	491	505	0	0	38	1	
9	0	0	0	0	484	506	0	0	38	1	
10	0	0	0	0	480	509	0	0	38	1	
11	0	0	0	0	470	510	0	0	38	1	
12	0	0	0	0	488	510	0	0	38	1	
13	0	0	0	0	502	509	0	0	38	1	
14	0	0	0	0	491	507	0	0	38	1	
15	0	0	0	0	520	508	0	0	38	1	
0	0	0	0	0	529	507	0	0	38	1	
1	0	0	0	0	535	508	0	0	38	1	
2	0	0	0	0	527	507	0	0	38	1	
3	0	0	0	0	506	506	0	0	38	1	
4	0	0	0	0	488	506	0	0	38	1	
5	0	0	0	0	490	504	0	0	38	1	
6	0	0	0	0	511	505	0	0	38	1	
7	0	0	0	0	526	506	0	322	38	1	
8	0	0	0	0	531	505	0	966	38	1	
9	0	0	0	0	520	508	0	1018	38	1	
10	0	0	0	0	519	511	0	1018	38	1	
11	0	0	0	0	530	512	0	1018	38	1	
12	0	0	0	0	538	513	0	1018	38	1	
13	0	0	0	0	539	512	0	1018	38	1	
14	0	0	0	0	537	512	0	1018	38	1	
15	0	0	0	0	515	511	0	1018	38	1	
0	0	0	0	0	485	509	0	1018	38	1	
1	0	0	0	0	450	509	0	1017	38	1	
2	0	0	0	0	449	508	0	607	38	1	
3	0	0	0	0	479	506	0	488	38	1	
4	0	0	0	0	494	507	0	487	38	1	
5	0	0	0	0	508	509	0	626	38	1	
6	0	0	0	0	517	507	0	967	38	1	
7	0	0	0	0	505	505	0	1018	38	1	
8	0	0	0	0	513	506	0	1018	38	1	
9	0	0	0	0	526	505	0	1018	38	1	
10	0	0	0	0	527	506	0	1018	38	1	
11	0	0	0	0	518	507	0	1018	38	1	
12	0	0	0	0	505	507	0	1018	38	1	
13	0	0	0	0	487	507	0	1018	38	1	
14	0	0	0	0	493	508	0	1018	38	1	
15	0	0	0	0	507	508	0	1018	38	1	
0	0	0	0	0	504	506	0	1018	38	1	
1	0	0	0	0	504	505	0	1018	38	1	
2	0	0	0	0	495	507	0	1018	38	1	
3	0	0	0	0	507	507	0	1018	38	1	
4	0	0	0	0	529	507	0	432	38	1	
5	0	0	0	0	546	507	0	0	38	1	
6	0	0	0	0	538	505	0	0	38	1	
7	0	0	0	0	545	506	0	0	38	1	
8	0	0	0	0	540	508	0	0	38	1	
9	0	0	0	0	534	509	0	0	38	1	
10	0	0	0	0	525	509	0	0	38	1	
11	0	0	0	0	513	508	0	0	38	1	
12	0	0	0	0	505	507	0	0	38	1	
13	0	0	0	0	497	508	0	0	38	1	
14	0	0	0	0	477	508	0	0	38	1	
15	0	0	0	0	445	507	0	0	38	1	
0	0	0	0	0	453	507	0	0	38	1	
1	0	0	0	0	478	507	0	0	38	1	
2	0	0	0	0	496	507	0	0	38	1	
3	0	0	0	0	513	507	0	0	38	1	
4	0	0	0	0	513	506	0	0	38	1	
5	0	0	0	0	516	507	0	0	38	1	
6	0	0	0	0	513	506	0	0	38	1	
7	0	0	0	0	522	505	0	0	38	1	
8	0	0	0	0	541	506	0	0	38	1	
9	0	0	0	0	539	505	0	0	38	1	
10	0	0	0	0	541	507	0	0	38	1	
11	0	0	0	0	548	503	0	0	38	1	
12	0	0	0	0	556	504	0	0	38	1	
13	0	0	0	0	549	507	0	0	38	1	
14	0	0	0	0	516	507	0	0	38	1	
15	0	0	0	0	478	508	0	0	38	1	
0	0	0	0	0	429	509	0	0	38	1	
1	0	0	0	0	430	509	0	0	38	1	
2	0	0	0	0	440	508	0	0	38	1	
3	0	0	0	0	480	508	0	0	38	1	
4	0	0	0	0	515	507	0	0	38	1	
5	0	0	0	0	501	508	0	0	38	1	
6	0	0	0	0	491	508	0	0	38	1	
7	0	0	0	0	515	507	0	0	38	1	
8	0	0	0	0	530	505	0	0	38	1	
9	0	0	0	0	520	507	0	0	38	1	
10	0	0	0	0	513	507	0	0	38	1	
11	0	0	0	0	515	509	0	0	38	1	
12	0	0	0	0	525	511	0	0	38	1	
13	0	0	0	0	528	511	0	0	38	1	
14	0	0	0	0	519	511	0	0	38	1	
15	0	0	0	0	523	509	0	0	38	1	
0	0	0	0	0	533	509	0	403	38	1	
1	0	0	0	0	523	510	0	671	38	1	
2	0	0	0	0	527	510	0	860	38	1	
3	0	0	0	0	531	508	0	969	38	1	
4	0	0	0	0	535	507	0	1018	38	1	
5	0	0	0	0	537	507	0	1018	38	1	
6	0	0	0	0	520	506	0	1017	38	1	
7	0	0	0	0	508	504	0	1018	38	1	
8	0	0	0	0	530	504	0	1017	38	1	
9	0	0	0	0	514	505	0	1017	38	1	
10	0	0	0	0	472	504	0	1018	38	1	
11	0	0	0	0	454	504	0	1018	38	1	
12	0	0	0	0	463	505	0	1018	38	1	
13	0	0	0	0	473	507	0	1018	38	1	
14	0	0	0	0	466	508	0	1018	38	1	
15	0	0	0	0	473	509	0	1018	38	1	
0	0	0	0	0	492	510	0	1018	38	1	
1	0	0	0	0	527	511	0	1018	38	1	
2	0	0	0	0	532	512	0	1018	38	1	
3	0	0	0	0	513	510	0	1018	38	1	
