# OpenSignals Text File Format. Version 1
# {"98:D3:61:FD:78:31": {"position": 0, "device": "bitalino_rev", "device name": "98:D3:61:FD:78:31", "device connection": "BTH98:D3:61:FD:78:31", "sampling rate": 1000, "resolution": [4, 1, 1, 1, 1, 10, 10, 10, 10, 6, 6], "firmware version": 1282, "comments": "", "keywords": "", "mode": 0, "sync interval": 2, "date": "2024-4-12", "time": "10:33:10.188", "channels": [1, 2, 3, 4, 5, 6], "sensor": ["RAW", "RAW", "RAW", "RAW", "RAW", "RAW"], "label": ["A1", "A2", "A3", "A4", "A5", "A6"], "column": ["nSeq", "I1", "I2", "O1", "O2", "A1", "A2", "A3", "A4", "A5", "A6"], "special": [{}, {}, {}, {}, {}, {}], "digital IO": [0, 0, 1, 1], "convertedValues": 0}}
# EndOfHeader
0	0	0	0	0	502	511	0	1018	37	0	
1	0	0	0	0	507	511	0	1018	37	0	
2	0	0	0	0	507	511	0	1018	37	0	
3	0	0	0	0	500	509	0	1018	37	0	
4	0	0	0	0	508	508	0	1018	37	0	
5	0	0	0	0	507	507	0	1018	37	0	
6	0	0	0	0	503	506	0	1018	37	0	
7	0	0	0	0	507	507	0	1018	37	0	
8	0	0	0	0	504	506	0	1018	37	0	
9	0	0	0	0	512	507	0	1018	37	0	
10	0	0	0	0	516	507	0	1018	37	0	
11	0	0	0	0	519	508	0	1018	37	0	
12	0	0	0	0	523	508	0	1018	37	0	
13	0	0	0	0	519	507	0	1018	37	0	
14	0	0	0	0	520	508	0	1018	38	0	
15	0	0	0	0	519	505	0	1018	37	0	
0	0	0	0	0	516	506	0	1018	37	0	
1	0	0	0	0	504	508	0	1018	37	0	
2	0	0	0	0	501	508	0	1018	37	0	
3	0	0	0	0	505	507	0	1018	37	0	
4	0	0	0	0	509	506	0	1017	37	0	
5	0	0	0	0	512	507	0	1018	37	0	
6	0	0	0	0	515	503	0	1018	37	0	
7	0	0	0	0	516	504	0	1018	37	0	
8	0	0	0	0	519	506	0	1018	37	0	
9	0	0	0	0	511	507	0	1018	37	0	
10	0	0	0	0	504	508	0	1018	37	0	
11	0	0	0	0	488	508	0	1018	37	0	
12	0	0	0	0	467	509	0	1018	37	0	
13	0	0	0	0	471	510	0	1018	37	0	
14	0	0	0	0	482	509	0	1018	37	0	
15	0	0	0	0	491	508	0	1018	37	0	
0	0	0	0	0	510	510	0	1018	37	0	
1	0	0	0	0	535	510	0	1018	37	0	
2	0	0	0	0	555	509	0	1018	37	0	
3	0	0	0	0	556	508	0	1018	37	0	
4	0	0	0	0	562	507	0	1018	37	0	
5	0	0	0	0	565	508	0	1018	37	0	
6	0	0	0	0	555	508	0	1018	37	0	
7	0	0	0	0	536	509	0	1017	37	0	
8	0	0	0	0	522	509	0	1018	37	0	
9	0	0	0	0	528	510	0	1018	37	0	
10	0	0	0	0	535	509	0	1018	37	0	
11	0	0	0	0	530	509	0	1018	37	0	
12	0	0	0	0	510	510	0	1018	37	0	
13	0	0	0	0	487	508	0	1018	37	0	
14	0	0	0	0	455	508	0	1017	38	0	
15	0	0	0	0	449	507	0	748	37	0	
0	0	0	0	0	449	506	0	645	37	0	
1	0	0	0	0	479	505	0	489	37	0	
2	0	0	0	0	491	505	0	484	37	0	
3	0	0	0	0	486	507	0	582	37	0	
4	0	0	0	0	487	509	0	636	37	0	
5	0	0	0	0	494	507	0	698	37	0	
6	0	0	0	0	503	506	0	582	38	0	
7	0	0	0	0	508	505	0	643	37	0	
8	0	0	0	0	511	505	0	821	37	0	
9	0	0	0	0	515	506	0	956	37	0	
10	0	0	0	0	517	508	0	1018	37	0	
11	0	0	0	0	516	507	0	1017	37	0	
12	0	0	0	0	516	506	0	1018	37	0	
13	0	0	0	0	515	508	0	1018	37	0	
14	0	0	0	0	514	508	0	1018	38	0	
15	0	0	0	0	513	507	0	1018	37	0	
0	0	0	0	0	514	509	0	1018	37	0	
1	0	0	0	0	512	510	0	1018	37	0	
2	0	0	0	0	513	510	0	1018	37	0	
3	0	0	0	0	517	510	0	1018	37	0	
4	0	0	0	0	516	511	0	1018	37	0	
5	0	0	0	0	517	511	0	1018	37	0	
6	0	0	0	0	516	512	0	1018	37	0	
7	0	0	0	0	515	512	0	1018	37	0	
8	0	0	0	0	515	511	0	1018	37	0	
9	0	0	0	0	513	511	0	1018	37	0	
10	0	0	0	0	511	510	0	1018	37	0	
11	0	0	0	0	507	509	0	1018	37	0	
12	0	0	0	0	508	509	0	1018	37	0	
13	0	0	0	0	501	508	0	1018	37	0	
14	0	0	0	0	497	507	0	1018	37	0	
15	0	0	0	0	489	507	0	1018	37	0	
0	0	0	0	0	488	505	0	1018	37	0	
1	0	0	0	0	478	506	0	1018	37	0	
2	0	0	0	0	483	508	0	1018	37	0	
3	0	0	0	0	491	507	0	1018	37	0	
4	0	0	0	0	493	508	0	1018	37	0	
5	0	0	0	0	495	508	0	1018	37	0	
6	0	0	0	0	502	507	0	1018	38	0	
7	0	0	0	0	505	508	0	1018	37	0	
8	0	0	0	0	513	508	0	1018	37	0	
9	0	0	0	0	524	509	0	1018	37	0	
10	0	0	0	0	541	508	0	1018	37	0	
11	0	0	0	0	554	508	0	1018	37	0	
12	0	0	0	0	559	508	0	1018	37	0	
13	0	0	0	0	543	507	0	1018	37	0	
14	0	0	0	0	533	507	0	1018	38	0	
15	0	0	0	0	531	506	0	1018	37	0	
0	0	0	0	0	536	507	0	1018	37	0	
1	0	0	0	0	535	506	0	1018	37	0	
2	0	0	0	0	528	506	0	1018	37	0	
3	0	0	0	0	529	506	0	1018	37	0	
4	0	0	0	0	528	506	0	1018	37	0	
5	0	0	0	0	515	506	0	1018	37	0	
6	0	0	0	0	508	507	0	1018	37	0	
7	0	0	0	0	493	505	0	1018	37	0	
8	0	0	0	0	491	505	0	1018	37	0	
9	0	0	0	0	492	505	0	1018	37	0	
10	0	0	0	0	497	505	0	1018	37	0	
11	0	0	0	0	503	506	0	1018	37	0	
12	0	0	0	0	486	507	0	1018	37	0	
13	0	0	0	0	470	508	0	1018	37	0	
14	0	0	0	0	474	507	0	1018	38	0	
15	0	0	0	0	477	506	0	1018	37	0	
0	0	0	0	0	474	505	0	1018	37	0	
1	0	0	0	0	485	506	0	1018	37	0	
2	0	0	0	0	503	508	0	1018	37	0	
3	0	0	0	0	515	508	0	1018	37	0	
4	0	0	0	0	527	507	0	1018	37	0	
5	0	0	0	0	542	508	0	1018	37	0	
6	0	0	0	0	548	508	0	1018	37	0	
7	0	0	0	0	539	508	0	1017	37	0	
8	0	0	0	0	546	508	0	609	37	0	
9	0	0	0	0	549	507	0	273	37	0	
10	0	0	0	0	542	507	0	0	37	0	
11	0	0	0	0	500	507	0	0	37	0	
12	0	0	0	0	455	506	0	0	37	0	
13	0	0	0	0	460	506	0	0	37	0	
14	0	0	0	0	467	505	0	0	37	0	
15	0	0	0	0	468	507	0	0	37	0	
0	0	0	0	0	499	507	0	0	37	0	
1	0	0	0	0	510	507	0	0	37	0	
2	0	0	0	0	483	508	0	239	37	0	
3	0	0	0	0	481	510	0	603	37	0	
4	0	0	0	0	489	508	0	1017	37	0	
5	0	0	0	0	501	507	0	1018	37	0	
6	0	0	0	0	494	507	0	1018	37	0	
7	0	0	0	0	508	505	0	1018	37	0	
8	0	0	0	0	525	505	0	1018	37	0	
9	0	0	0	0	540	507	0	1018	37	0	
10	0	0	0	0	544	507	0	1018	37	0	
11	0	0	0	0	549	506	0	1018	37	0	
12	0	0	0	0	548	505	0	1018	37	0	
13	0	0	0	0	540	505	0	1018	37	0	
14	0	0	0	0	536	505	0	1018	38	0	
15	0	0	0	0	521	504	0	1018	37	0	
0	0	0	0	0	509	507	0	1018	37	0	
1	0	0	0	0	510	507	0	1018	37	0	
2	0	0	0	0	505	506	0	1018	37	0	
3	0	0	0	0	501	508	0	1018	37	0	
4	0	0	0	0	497	507	0	1018	37	0	
5	0	0	0	0	500	508	0	1018	37	0	
6	0	0	0	0	507	507	0	1018	37	0	
7	0	0	0	0	512	508	0	1018	37	0	
8	0	0	0	0	515	507	0	1018	37	0	
9	0	0	0	0	515	507	0	1018	37	0	
10	0	0	0	0	509	507	0	1018	37	0	
11	0	0	0	0	500	506	0	1018	37	0	
12	0	0	0	0	491	505	0	1018	37	0	
13	0	0	0	0	482	504	0	1018	37	0	
14	0	0	0	0	479	504	0	1018	37	0	
15	0	0	0	0	474	504	0	1018	37	0	
0	0	0	0	0	476	505	0	1018	37	0	
1	0	0	0	0	487	506	0	1018	37	0	
2	0	0	0	0	505	505	0	1018	37	0	
3	0	0	0	0	513	506	0	1018	37	0	
4	0	0	0	0	522	506	0	1018	37	0	
5	0	0	0	0	530	506	0	1018	37	0	
6	0	0	0	0	536	506	0	1018	38	0	
7	0	0	0	0	543	507	0	1018	37	0	
8	0	0	0	0	546	508	0	1018	37	0	
9	0	0	0	0	543	508	0	1018	37	0	
10	0	0	0	0	536	509	0	1018	37	0	
11	0	0	0	0	520	507	0	1018	37	0	
12	0	0	0	0	515	508	0	1018	37	0	
13	0	0	0	0	515	508	0	1018	37	0	
14	0	0	0	0	513	508	0	1018	37	0	
15	0	0	0	0	509	507	0	1018	37	0	
0	0	0	0	0	508	507	0	1017	37	0	
1	0	0	0	0	510	507	0	826	37	0	
2	0	0	0	0	515	507	0	536	37	0	
3	0	0	0	0	510	506	0	171	37	0	
4	0	0	0	0	499	507	0	0	37	0	
5	0	0	0	0	489	507	0	0	37	0	
6	0	0	0	0	477	510	0	0	37	0	
7	0	0	0	0	480	510	0	0	37	0	
8	0	0	0	0	490	508	0	0	37	0	
9	0	0	0	0	491	508	0	0	37	0	
10	0	0	0	0	494	507	0	0	37	0	
11	0	0	0	0	497	506	0	0	37	0	
12	0	0	0	0	508	508	0	0	37	0	
13	0	0	0	0	518	508	0	0	37	0	
14	0	0	0	0	517	508	0	0	37	0	
15	0	0	0	0	504	508	0	0	37	0	
0	0	0	0	0	491	507	0	0	37	0	
1	0	0	0	0	478	505	0	0	37	0	
2	0	0	0	0	448	506	0	0	37	0	
3	0	0	0	0	425	507	0	0	37	0	
4	0	0	0	0	447	508	0	0	37	0	
5	0	0	0	0	494	507	0	0	37	0	
6	0	0	0	0	519	509	0	0	37	0	
7	0	0	0	0	535	509	0	0	37	0	
8	0	0	0	0	548	508	0	0	37	0	
9	0	0	0	0	563	510	0	0	37	0	
10	0	0	0	0	571	511	0	0	37	0	
11	0	0	0	0	572	510	0	0	37	0	
12	0	0	0	0	576	511	0	0	37	0	
13	0	0	0	0	566	508	0	0	37	0	
14	0	0	0	0	545	508	0	0	37	0	
15	0	0	0	0	519	508	0	0	37	0	
0	0	0	0	0	507	506	0	0	37	0	
1	0	0	0	0	509	507	0	0	37	0	
2	0	0	0	0	522	508	0	0	37	0	
3	0	0	0	0	533	507	0	0	37	0	
4	0	0	0	0	537	507	0	0	37	0	
5	0	0	0	0	528	506	0	0	37	0	
6	0	0	0	0	517	507	0	0	37	0	
7	0	0	0	0	499	505	0	0	37	0	
8	0	0	0	0	478	507	0	0	37	0	
9	0	0	0	0	457	507	0	0	37	0	
10	0	0	0	0	442	507	0	0	37	0	
11	0	0	0	0	468	507	0	0	37	0	
12	0	0	0	0	499	507	0	0	37	0	
13	0	0	0	0	505	507	0	0	37	0	
14	0	0	0	0	496	507	0	0	37	0	
15	0	0	0	0	488	509	0	0	37	0	
0	0	0	0	0	489	511	0	0	37	0	
1	0	0	0	0	493	511	0	0	37	0	
2	0	0	0	0	496	511	0	0	37	0	
3	0	0	0	0	493	508	0	0	37	0	
4	0	0	0	0	500	509	0	0	37	0	
5	0	0	0	0	500	508	0	0	37	0	
6	0	0	0	0	501	509	0	0	37	0	
7	0	0	0	0	511	508	0	239	37	0	
8	0	0	0	0	522	507	0	446	37	0	
9	0	0	0	0	527	506	0	577	37	0	
10	0	0	0	0	532	506	0	612	37	0	
11	0	0	0	0	536	508	0	690	37	0	
12	0	0	0	0	535	507	0	793	37	0	
13	0	0	0	0	538	507	0	775	37	0	
14	0	0	0	0	538	507	0	715	38	0	
15	0	0	0	0	536	510	0	679	37	0	
0	0	0	0	0	534	510	0	713	37	0	
1	0	0	0	0	529	511	0	692	37	0	
2	0	0	0	0	515	510	0	585	37	0	
3	0	0	0	0	500	509	0	518	37	0	
4	0	0	0	0	503	511	0	391	37	0	
5	0	0	0	0	504	510	0	349	37	0	
6	0	0	0	0	499	509	0	359	38	0	
7	0	0	0	0	504	510	0	352	37	0	
8	0	0	0	0	507	510	0	331	37	0	
9	0	0	0	0	503	510	0	129	37	0	
10	0	0	0	0	497	510	0	0	37	0	
11	0	0	0	0	481	509	0	0	37	0	
12	0	0	0	0	476	509	0	0	37	0	
13	0	0	0	0	489	510	0	0	37	0	
14	0	0	0	0	484	510	0	0	38	0	
15	0	0	0	0	469	508	0	0	37	0	
0	0	0	0	0	479	510	0	0	37	0	
1	0	0	0	0	493	510	0	0	37	0	
2	0	0	0	0	499	511	0	0	37	0	
3	0	0	0	0	502	511	0	0	37	0	
4	0	0	0	0	483	510	0	0	37	0	
5	0	0	0	0	478	510	0	0	37	0	
6	0	0	0	0	501	510	0	0	38	0	
7	0	0	0	0	521	511	0	0	37	0	
8	0	0	0	0	539	510	0	0	37	0	
9	0	0	0	0	545	508	0	0	37	0	
10	0	0	0	0	548	507	0	0	37	0	
11	0	0	0	0	556	507	0	0	37	0	
12	0	0	0	0	554	507	0	0	37	0	
13	0	0	0	0	542	507	0	0	37	0	
14	0	0	0	0	519	507	0	0	38	0	
15	0	0	0	0	500	506	0	0	37	0	
0	0	0	0	0	486	506	0	0	37	0	
1	0	0	0	0	478	506	0	0	37	0	
2	0	0	0	0	480	509	0	0	37	0	
3	0	0	0	0	491	509	0	0	37	0	
4	0	0	0	0	505	507	0	0	37	0	
5	0	0	0	0	515	508	0	0	37	0	
6	0	0	0	0	524	508	0	0	38	0	
7	0	0	0	0	521	509	0	0	37	0	
8	0	0	0	0	520	508	0	0	37	0	
9	0	0	0	0	524	507	0	0	37	0	
10	0	0	0	0	529	507	0	0	37	0	
11	0	0	0	0	532	507	0	0	37	0	
12	0	0	0	0	537	507	0	0	37	0	
13	0	0	0	0	529	506	0	0	37	0	
14	0	0	0	0	522	505	0	0	38	0	
15	0	0	0	0	518	507	0	0	37	0	
0	0	0	0	0	516	508	0	0	37	0	
1	0	0	0	0	507	508	0	0	37	0	
2	0	0	0	0	507	507	0	0	37	0	
3	0	0	0	0	507	506	0	0	37	0	
4	0	0	0	0	498	507	0	0	37	0	
5	0	0	0	0	464	507	0	0	37	0	
6	0	0	0	0	455	508	0	0	38	0	
7	0	0	0	0	472	507	0	0	37	0	
8	0	0	0	0	486	505	0	0	37	0	
9	0	0	0	0	495	506	0	0	37	0	
10	0	0	0	0	505	507	0	0	37	0	
11	0	0	0	0	518	508	0	0	37	0	
12	0	0	0	0	518	508	0	0	37	0	
13	0	0	0	0	510	508	0	0	37	0	
14	0	0	0	0	515	508	0	0	37	0	
15	0	0	0	0	519	508	0	0	37	0	
0	0	0	0	0	530	509	0	0	37	0	
1	0	0	0	0	536	510	0	0	37	0	
2	0	0	0	0	531	508	0	0	37	0	
3	0	0	0	0	525	508	0	0	37	0	
4	0	0	0	0	535	508	0	0	37	0	
5	0	0	0	0	539	507	0	0	37	0	
6	0	0	0	0	538	506	0	0	37	0	
7	0	0	0	0	536	507	0	0	37	0	
8	0	0	0	0	539	507	0	0	37	0	
9	0	0	0	0	529	509	0	308	37	0	
10	0	0	0	0	499	508	0	934	37	0	
11	0	0	0	0	447	508	0	1018	37	0	
12	0	0	0	0	433	508	0	1018	37	0	
13	0	0	0	0	476	508	0	1018	37	0	
14	0	0	0	0	487	510	0	1018	37	0	
15	0	0	0	0	485	511	0	1018	37	0	
0	0	0	0	0	484	512	0	1018	37	0	
1	0	0	0	0	485	512	0	1018	37	0	
2	0	0	0	0	481	511	0	1018	37	0	
3	0	0	0	0	473	511	0	1018	37	0	
4	0	0	0	0	462	511	0	1018	37	0	
5	0	0	0	0	465	511	0	1018	37	0	
6	0	0	0	0	479	508	0	1018	37	0	
7	0	0	0	0	494	509	0	1018	37	0	
8	0	0	0	0	512	508	0	1018	37	0	
9	0	0	0	0	526	508	0	1018	37	0	
10	0	0	0	0	538	508	0	1018	37	0	
11	0	0	0	0	551	507	0	1018	37	0	
12	0	0	0	0	559	507	0	1018	37	0	
13	0	0	0	0	566	507	0	1018	37	0	
14	0	0	0	0	568	508	0	1018	37	0	
15	0	0	0	0	562	507	0	1018	37	0	
0	0	0	0	0	560	506	0	1018	37	0	
1	0	0	0	0	557	506	0	1018	37	0	
2	0	0	0	0	539	507	0	1018	37	0	
3	0	0	0	0	509	508	0	1018	37	0	
4	0	0	0	0	494	507	0	1018	37	0	
5	0	0	0	0	503	506	0	1018	37	0	
6	0	0	0	0	510	508	0	1018	37	0	
7	0	0	0	0	509	507	0	1018	37	0	
8	0	0	0	0	504	508	0	1018	37	0	
9	0	0	0	0	487	509	0	1018	37	0	
10	0	0	0	0	488	508	0	1018	37	0	
11	0	0	0	0	495	507	0	1018	37	0	
12	0	0	0	0	496	508	0	1018	37	0	
13	0	0	0	0	497	507	0	1018	37	0	
14	0	0	0	0	489	507	0	1018	37	0	
15	0	0	0	0	499	508	0	1018	37	0	
0	0	0	0	0	500	509	0	1018	37	0	
1	0	0	0	0	496	508	0	1018	37	0	
2	0	0	0	0	499	508	0	1018	37	0	
3	0	0	0	0	497	507	0	1018	37	0	
4	0	0	0	0	495	509	0	1018	37	0	
5	0	0	0	0	510	509	0	1018	37	0	
6	0	0	0	0	508	509	0	1018	37	0	
7	0	0	0	0	507	510	0	1018	37	0	
8	0	0	0	0	506	508	0	1018	37	0	
9	0	0	0	0	508	508	0	1018	37	0	
10	0	0	0	0	511	506	0	1018	37	0	
11	0	0	0	0	509	506	0	1018	37	0	
12	0	0	0	0	506	506	0	1018	37	0	
13	0	0	0	0	508	505	0	1018	37	0	
14	0	0	0	0	508	506	0	1018	38	0	
15	0	0	0	0	505	508	0	1018	37	0	
0	0	0	0	0	492	507	0	1018	37	0	
1	0	0	0	0	491	508	0	1018	37	0	
2	0	0	0	0	498	508	0	1018	37	0	
3	0	0	0	0	510	508	0	1018	37	0	
4	0	0	0	0	521	508	0	1018	37	0	
5	0	0	0	0	518	507	0	1018	37	0	
6	0	0	0	0	515	510	0	1018	37	0	
7	0	0	0	0	507	510	0	1018	37	0	
8	0	0	0	0	505	510	0	1018	37	0	
9	0	0	0	0	487	508	0	1018	37	0	
10	0	0	0	0	475	507	0	1018	37	0	
11	0	0	0	0	486	508	0	1018	37	0	
12	0	0	0	0	504	505	0	1018	37	0	
13	0	0	0	0	513	506	0	1018	37	0	
14	0	0	0	0	512	504	0	1018	38	0	
15	0	0	0	0	519	503	0	1018	37	0	
0	0	0	0	0	525	503	0	1018	37	0	
1	0	0	0	0	538	503	0	1018	37	0	
2	0	0	0	0	539	502	0	1017	37	0	
3	0	0	0	0	537	503	0	1018	37	0	
4	0	0	0	0	541	503	0	1018	37	0	
5	0	0	0	0	542	504	0	1018	37	0	
6	0	0	0	0	544	504	0	1018	38	0	
7	0	0	0	0	549	505	0	1018	37	0	
8	0	0	0	0	557	507	0	1018	37	0	
9	0	0	0	0	547	509	0	1018	37	0	
10	0	0	0	0	536	510	0	1018	37	0	
11	0	0	0	0	527	509	0	1018	37	0	
12	0	0	0	0	497	507	0	1018	37	0	
13	0	0	0	0	479	507	0	1018	37	0	
14	0	0	0	0	481	507	0	1018	37	0	
15	0	0	0	0	493	509	0	1017	37	0	
0	0	0	0	0	503	508	0	1018	37	0	
1	0	0	0	0	511	507	0	919	37	0	
2	0	0	0	0	520	507	0	783	37	0	
3	0	0	0	0	517	507	0	772	37	0	
4	0	0	0	0	501	508	0	613	37	0	
5	0	0	0	0	484	507	0	380	37	0	
6	0	0	0	0	468	505	0	111	37	0	
7	0	0	0	0	444	506	0	0	37	0	
8	0	0	0	0	440	508	0	0	37	0	
9	0	0	0	0	470	505	0	0	37	0	
10	0	0	0	0	484	504	0	0	37	0	
11	0	0	0	0	473	504	0	0	37	0	
12	0	0	0	0	484	505	0	0	37	0	
13	0	0	0	0	504	507	0	0	37	0	
14	0	0	0	0	523	509	0	0	37	0	
15	0	0	0	0	528	507	0	0	37	0	
0	0	0	0	0	530	508	0	0	37	0	
1	0	0	0	0	533	508	0	0	37	0	
2	0	0	0	0	535	508	0	0	37	0	
3	0	0	0	0	536	509	0	0	37	0	
4	0	0	0	0	537	508	0	0	37	0	
5	0	0	0	0	535	510	0	0	37	0	
6	0	0	0	0	531	509	0	0	38	0	
7	0	0	0	0	524	509	0	0	37	0	
8	0	0	0	0	515	509	0	0	38	0	
9	0	0	0	0	505	508	0	0	37	0	
10	0	0	0	0	501	508	0	0	37	0	
11	0	0	0	0	506	507	0	0	38	0	
12	0	0	0	0	505	506	0	0	38	0	
13	0	0	0	0	509	505	0	0	38	0	
14	0	0	0	0	504	505	0	0	38	0	
15	0	0	0	0	500	504	0	0	38	0	
0	0	0	0	0	504	503	0	0	38	0	
1	0	0	0	0	491	504	0	0	38	0	
2	0	0	0	0	489	506	0	0	37	0	
3	0	0	0	0	490	506	0	0	38	0	
4	0	0	0	0	501	507	0	0	38	0	
5	0	0	0	0	514	507	0	0	38	0	
6	0	0	0	0	519	508	0	0	38	0	
7	0	0	0	0	517	508	0	0	37	0	
8	0	0	0	0	508	507	0	0	37	0	
9	0	0	0	0	512	510	0	0	37	0	
10	0	0	0	0	514	508	0	0	37	0	
11	0	0	0	0	510	510	0	0	37	0	
12	0	0	0	0	513	509	0	0	37	0	
13	0	0	0	0	514	507	0	0	37	0	
14	0	0	0	0	506	506	0	0	38	0	
15	0	0	0	0	511	507	0	0	37	0	
0	0	0	0	0	512	506	0	0	37	0	
1	0	0	0	0	512	506	0	0	37	0	
2	0	0	0	0	499	507	0	0	37	0	
3	0	0	0	0	488	508	0	0	37	0	
4	0	0	0	0	484	506	0	0	37	0	
5	0	0	0	0	478	505	0	0	37	0	
6	0	0	0	0	498	505	0	0	38	0	
7	0	0	0	0	510	504	0	0	37	0	
8	0	0	0	0	524	505	0	0	37	0	
9	0	0	0	0	535	509	0	0	37	0	
10	0	0	0	0	537	510	0	0	37	0	
11	0	0	0	0	531	508	0	0	37	0	
12	0	0	0	0	524	509	0	0	37	0	
13	0	0	0	0	518	508	0	0	37	0	
14	0	0	0	0	511	508	0	0	37	0	
15	0	0	0	0	513	508	0	0	37	0	
0	0	0	0	0	512	509	0	0	37	0	
1	0	0	0	0	503	508	0	0	37	0	
2	0	0	0	0	503	508	0	0	37	0	
3	0	0	0	0	501	509	0	0	37	0	
4	0	0	0	0	500	509	0	0	37	0	
5	0	0	0	0	502	510	0	0	37	0	
6	0	0	0	0	504	508	0	0	37	0	
7	0	0	0	0	510	507	0	0	37	0	
8	0	0	0	0	501	507	0	0	37	0	
9	0	0	0	0	494	508	0	0	37	0	
10	0	0	0	0	499	506	0	0	37	0	
11	0	0	0	0	504	507	0	0	37	0	
12	0	0	0	0	476	508	0	0	37	0	
13	0	0	0	0	444	508	0	0	37	0	
14	0	0	0	0	451	509	0	0	37	0	
15	0	0	0	0	479	510	0	0	37	0	
0	0	0	0	0	496	509	0	0	37	0	
1	0	0	0	0	516	508	0	0	37	0	
2	0	0	0	0	537	509	0	0	37	0	
3	0	0	0	0	559	508	0	0	37	0	
4	0	0	0	0	569	509	0	0	37	0	
5	0	0	0	0	581	508	0	0	37	0	
6	0	0	0	0	589	507	0	0	38	0	
7	0	0	0	0	579	506	0	0	37	0	
8	0	0	0	0	561	506	0	0	37	0	
9	0	0	0	0	544	507	0	0	37	0	
10	0	0	0	0	527	506	0	0	37	0	
11	0	0	0	0	523	505	0	0	37	0	
12	0	0	0	0	518	504	0	0	37	0	
13	0	0	0	0	506	504	0	0	38	0	
14	0	0	0	0	499	505	0	0	38	0	
15	0	0	0	0	496	504	0	0	38	0	
0	0	0	0	0	492	506	0	0	38	0	
1	0	0	0	0	496	508	0	0	37	0	
2	0	0	0	0	490	508	0	0	37	0	
3	0	0	0	0	493	508	0	0	38	0	
4	0	0	0	0	495	506	0	0	38	0	
5	0	0	0	0	490	505	0	0	38	0	
6	0	0	0	0	480	505	0	0	38	0	
7	0	0	0	0	473	505	0	0	38	0	
8	0	0	0	0	474	507	0	0	38	0	
9	0	0	0	0	488	508	0	0	38	0	
10	0	0	0	0	491	509	0	0	37	0	
11	0	0	0	0	486	510	0	0	38	0	
12	0	0	0	0	478	510	0	0	37	0	
13	0	0	0	0	478	510	0	0	38	0	
14	0	0	0	0	497	511	0	0	38	0	
15	0	0	0	0	513	509	0	0	38	0	
0	0	0	0	0	522	509	0	0	38	0	
1	0	0	0	0	522	508	0	0	37	0	
2	0	0	0	0	516	508	0	0	37	0	
3	0	0	0	0	506	509	0	0	38	0	
4	0	0	0	0	503	508	0	0	37	0	
5	0	0	0	0	505	507	0	0	37	0	
6	0	0	0	0	518	505	0	0	38	0	
7	0	0	0	0	517	506	0	0	37	0	
8	0	0	0	0	521	506	0	0	37	0	
9	0	0	0	0	524	504	0	0	37	0	
10	0	0	0	0	524	504	0	0	37	0	
11	0	0	0	0	523	507	0	0	37	0	
12	0	0	0	0	515	506	0	0	37	0	
13	0	0	0	0	507	506	0	0	37	0	
14	0	0	0	0	496	506	0	0	38	0	
15	0	0	0	0	493	508	0	0	37	0	
0	0	0	0	0	499	508	0	0	37	0	
1	0	0	0	0	501	507	0	0	37	0	
2	0	0	0	0	504	507	0	0	37	0	
3	0	0	0	0	511	505	0	0	37	0	
4	0	0	0	0	513	508	0	0	37	0	
5	0	0	0	0	512	507	0	143	37	0	
6	0	0	0	0	506	506	0	175	38	0	
7	0	0	0	0	501	505	0	160	37	0	
8	0	0	0	0	488	507	0	146	37	0	
9	0	0	0	0	490	508	0	99	37	0	
10	0	0	0	0	508	507	0	163	37	0	
11	0	0	0	0	513	507	0	121	37	0	
12	0	0	0	0	516	509	0	122	37	0	
13	0	0	0	0	517	508	0	92	37	0	
14	0	0	0	0	509	509	0	0	38	0	
15	0	0	0	0	510	509	0	0	37	0	
0	0	0	0	0	515	510	0	0	37	0	
1	0	0	0	0	524	509	0	0	37	0	
2	0	0	0	0	528	509	0	0	37	0	
3	0	0	0	0	538	508	0	0	37	0	
4	0	0	0	0	529	507	0	0	37	0	
5	0	0	0	0	496	508	0	0	37	0	
6	0	0	0	0	468	509	0	0	38	0	
7	0	0	0	0	464	508	0	0	37	0	
8	0	0	0	0	488	509	0	0	37	0	
9	0	0	0	0	517	510	0	0	37	0	
10	0	0	0	0	534	509	0	0	37	0	
11	0	0	0	0	542	508	0	0	37	0	
12	0	0	0	0	537	508	0	0	37	0	
13	0	0	0	0	530	507	0	0	37	0	
14	0	0	0	0	515	506	0	0	38	0	
15	0	0	0	0	507	507	0	0	37	0	
0	0	0	0	0	503	507	0	0	37	0	
1	0	0	0	0	498	508	0	0	37	0	
2	0	0	0	0	501	507	0	0	37	0	
3	0	0	0	0	496	504	0	0	37	0	
4	0	0	0	0	489	507	0	0	37	0	
5	0	0	0	0	482	506	0	0	37	0	
6	0	0	0	0	491	506	0	0	38	0	
7	0	0	0	0	496	506	0	0	37	0	
8	0	0	0	0	507	507	0	0	37	0	
9	0	0	0	0	524	507	0	0	37	0	
10	0	0	0	0	542	508	0	0	37	0	
11	0	0	0	0	546	509	0	0	37	0	
12	0	0	0	0	547	509	0	0	37	0	
13	0	0	0	0	547	508	0	0	37	0	
14	0	0	0	0	550	508	0	0	38	0	
15	0	0	0	0	550	509	0	0	37	0	
0	0	0	0	0	544	511	0	0	37	0	
1	0	0	0	0	522	510	0	0	37	0	
2	0	0	0	0	505	510	0	0	37	0	
3	0	0	0	0	492	509	0	0	37	0	
4	0	0	0	0	492	507	0	0	37	0	
5	0	0	0	0	489	506	0	0	37	0	
6	0	0	0	0	483	507	0	0	38	0	
7	0	0	0	0	475	508	0	0	37	0	
8	0	0	0	0	476	509	0	0	37	0	
9	0	0	0	0	486	509	0	0	37	0	
10	0	0	0	0	494	509	0	0	37	0	
11	0	0	0	0	498	510	0	0	37	0	
12	0	0	0	0	497	508	0	0	37	0	
13	0	0	0	0	507	508	0	0	37	0	
14	0	0	0	0	508	509	0	0	38	0	
15	0	0	0	0	509	507	0	0	37	0	
0	0	0	0	0	512	508	0	0	37	0	
1	0	0	0	0	515	507	0	0	37	0	
2	0	0	0	0	518	506	0	0	37	0	
3	0	0	0	0	518	507	0	0	37	0	
4	0	0	0	0	513	505	0	0	37	0	
5	0	0	0	0	511	506	0	0	37	0	
6	0	0	0	0	509	506	0	0	38	0	
7	0	0	0	0	517	505	0	0	37	0	
8	0	0	0	0	512	504	0	0	37	0	
9	0	0	0	0	508	507	0	0	37	0	
10	0	0	0	0	508	508	0	0	37	0	
11	0	0	0	0	527	507	0	0	37	0	
12	0	0	0	0	542	508	0	333	37	0	
13	0	0	0	0	539	509	0	518	37	0	
14	0	0	0	0	531	507	0	732	38	0	
15	0	0	0	0	514	509	0	921	37	0	
0	0	0	0	0	487	509	0	1018	37	0	
1	0	0	0	0	443	509	0	1017	37	0	
2	0	0	0	0	432	507	0	1018	37	0	
3	0	0	0	0	440	507	0	1018	37	0	
4	0	0	0	0	462	507	0	1018	37	0	
5	0	0	0	0	494	508	0	1018	37	0	
6	0	0	0	0	521	508	0	1018	37	0	
7	0	0	0	0	541	507	0	1018	37	0	
8	0	0	0	0	541	507	0	1018	37	0	
9	0	0	0	0	536	508	0	1018	37	0	
10	0	0	0	0	532	509	0	1018	37	0	
11	0	0	0	0	526	508	0	1018	37	0	
12	0	0	0	0	513	509	0	1018	37	0	
13	0	0	0	0	504	506	0	1018	37	0	
14	0	0	0	0	510	506	0	1018	37	0	
15	0	0	0	0	509	508	0	1018	37	0	
0	0	0	0	0	495	509	0	1018	37	0	
1	0	0	0	0	488	508	0	1018	37	0	
2	0	0	0	0	498	509	0	1018	37	0	
3	0	0	0	0	511	510	0	1018	37	0	
4	0	0	0	0	521	509	0	1018	37	0	
5	0	0	0	0	524	508	0	1018	37	0	
6	0	0	0	0	519	508	0	1018	37	0	
7	0	0	0	0	516	509	0	1018	37	0	
8	0	0	0	0	515	509	0	1017	37	0	
9	0	0	0	0	511	509	0	1018	37	0	
10	0	0	0	0	509	510	0	1018	37	0	
11	0	0	0	0	502	510	0	1018	37	0	
12	0	0	0	0	489	509	0	1018	37	0	
13	0	0	0	0	492	510	0	1018	37	0	
14	0	0	0	0	488	510	0	1018	37	0	
15	0	0	0	0	494	511	0	1017	37	0	
0	0	0	0	0	498	511	0	1018	37	0	
1	0	0	0	0	504	510	0	1018	37	0	
2	0	0	0	0	503	509	0	1018	37	0	
3	0	0	0	0	501	510	0	919	37	0	
4	0	0	0	0	506	511	0	688	37	0	
5	0	0	0	0	515	511	0	418	37	0	
6	0	0	0	0	515	510	0	179	37	0	
7	0	0	0	0	521	511	0	0	37	0	
8	0	0	0	0	521	508	0	0	37	0	
9	0	0	0	0	517	508	0	0	37	0	
10	0	0	0	0	523	508	0	98	37	0	
11	0	0	0	0	530	508	0	300	37	0	
12	0	0	0	0	527	509	0	590	37	0	
13	0	0	0	0	521	510	0	898	37	0	
14	0	0	0	0	531	511	0	1017	37	0	
15	0	0	0	0	530	511	0	1018	37	0	
0	0	0	0	0	510	512	0	1018	37	0	
1	0	0	0	0	509	511	0	1017	37	0	
2	0	0	0	0	518	511	0	1018	37	0	
3	0	0	0	0	528	510	0	1018	37	0	
4	0	0	0	0	523	509	0	1018	37	0	
5	0	0	0	0	514	509	0	1018	37	0	
6	0	0	0	0	516	511	0	1018	37	0	
7	0	0	0	0	523	510	0	1018	37	0	
8	0	0	0	0	511	508	0	1018	37	0	
9	0	0	0	0	512	507	0	1018	37	0	
10	0	0	0	0	511	507	0	1018	37	0	
11	0	0	0	0	519	507	0	1018	37	0	
12	0	0	0	0	519	507	0	1018	37	0	
13	0	0	0	0	516	508	0	1018	37	0	
14	0	0	0	0	504	507	0	1018	37	0	
15	0	0	0	0	497	507	0	1018	37	0	
0	0	0	0	0	504	507	0	1018	37	0	
1	0	0	0	0	508	505	0	1018	37	0	
2	0	0	0	0	512	504	0	1018	37	0	
3	0	0	0	0	511	505	0	1018	37	0	
4	0	0	0	0	509	505	0	1018	37	0	
5	0	0	0	0	496	506	0	1018	37	0	
6	0	0	0	0	495	504	0	1018	37	0	
7	0	0	0	0	495	506	0	1018	37	0	
8	0	0	0	0	488	507	0	1018	37	0	
9	0	0	0	0	492	507	0	1018	37	0	
10	0	0	0	0	498	507	0	1018	37	0	
11	0	0	0	0	499	510	0	1018	37	0	
12	0	0	0	0	500	509	0	1018	37	0	
13	0	0	0	0	506	507	0	1018	37	0	
14	0	0	0	0	508	506	0	1018	37	0	
15	0	0	0	0	513	507	0	1018	37	0	
0	0	0	0	0	518	508	0	1018	37	0	
1	0	0	0	0	526	508	0	1018	37	0	
2	0	0	0	0	536	509	0	1018	37	0	
3	0	0	0	0	541	510	0	1017	37	0	
4	0	0	0	0	550	508	0	1018	37	0	
5	0	0	0	0	551	507	0	1018	37	0	
6	0	0	0	0	534	508	0	1018	38	0	
7	0	0	0	0	501	508	0	1018	37	0	
8	0	0	0	0	446	509	0	1018	37	0	
9	0	0	0	0	426	509	0	1018	37	0	
10	0	0	0	0	416	507	0	1018	37	0	
11	0	0	0	0	427	506	0	1018	37	0	
12	0	0	0	0	469	506	0	1018	37	0	
13	0	0	0	0	504	507	0	1018	37	0	
14	0	0	0	0	519	507	0	1018	38	0	
15	0	0	0	0	521	508	0	1018	37	0	
0	0	0	0	0	525	509	0	1017	37	0	
1	0	0	0	0	517	508	0	882	37	0	
2	0	0	0	0	518	508	0	814	37	0	
3	0	0	0	0	524	508	0	638	37	0	
4	0	0	0	0	527	508	0	528	37	0	
5	0	0	0	0	522	508	0	492	37	0	
6	0	0	0	0	516	509	0	573	38	0	
7	0	0	0	0	516	508	0	694	37	0	
8	0	0	0	0	511	508	0	853	37	0	
9	0	0	0	0	515	508	0	799	37	0	
10	0	0	0	0	521	510	0	668	37	0	
11	0	0	0	0	528	509	0	419	37	0	
12	0	0	0	0	528	509	0	42	37	0	
13	0	0	0	0	516	508	0	0	37	0	
14	0	0	0	0	488	510	0	0	38	0	
15	0	0	0	0	481	510	0	0	37	0	
0	0	0	0	0	494	509	0	0	37	0	
1	0	0	0	0	496	510	0	0	37	0	
2	0	0	0	0	505	508	0	0	37	0	
3	0	0	0	0	517	509	0	0	37	0	
4	0	0	0	0	523	510	0	0	37	0	
5	0	0	0	0	517	508	0	0	37	0	
6	0	0	0	0	517	508	0	0	38	0	
7	0	0	0	0	525	509	0	0	37	0	
8	0	0	0	0	528	512	0	0	37	0	
9	0	0	0	0	524	511	0	296	37	0	
10	0	0	0	0	523	510	0	578	37	0	
11	0	0	0	0	526	507	0	775	37	0	
12	0	0	0	0	508	506	0	1002	37	0	
13	0	0	0	0	494	506	0	1018	37	0	
14	0	0	0	0	489	508	0	1017	38	0	
15	0	0	0	0	481	507	0	1018	37	0	
0	0	0	0	0	488	506	0	1017	37	0	
1	0	0	0	0	501	505	0	1018	37	0	
2	0	0	0	0	508	506	0	1018	37	0	
3	0	0	0	0	518	507	0	1017	37	0	
4	0	0	0	0	529	508	0	1017	37	0	
5	0	0	0	0	530	509	0	927	37	0	
6	0	0	0	0	527	509	0	868	38	0	
7	0	0	0	0	527	508	0	639	37	0	
8	0	0	0	0	534	507	0	418	37	0	
9	0	0	0	0	533	508	0	283	37	0	
10	0	0	0	0	526	507	0	246	37	0	
11	0	0	0	0	523	505	0	216	37	0	
12	0	0	0	0	513	507	0	243	37	0	
13	0	0	0	0	513	510	0	354	37	0	
14	0	0	0	0	512	509	0	494	38	0	
15	0	0	0	0	508	510	0	618	37	0	
0	0	0	0	0	506	511	0	696	37	0	
1	0	0	0	0	494	512	0	887	37	0	
2	0	0	0	0	486	511	0	987	37	0	
3	0	0	0	0	485	509	0	1018	37	0	
4	0	0	0	0	464	508	0	1018	37	0	
5	0	0	0	0	446	509	0	1018	37	0	
6	0	0	0	0	448	507	0	1018	38	0	
7	0	0	0	0	480	507	0	1018	37	0	
8	0	0	0	0	502	507	0	1018	37	0	
9	0	0	0	0	493	507	0	1018	37	0	
10	0	0	0	0	486	506	0	1018	37	0	
11	0	0	0	0	501	505	0	1018	37	0	
12	0	0	0	0	531	507	0	1018	37	0	
13	0	0	0	0	546	507	0	1018	37	0	
14	0	0	0	0	552	508	0	1018	38	0	
15	0	0	0	0	556	508	0	1018	37	0	
0	0	0	0	0	556	507	0	1018	37	0	
1	0	0	0	0	558	507	0	1018	37	0	
2	0	0	0	0	551	506	0	1018	37	0	
3	0	0	0	0	546	505	0	1018	37	0	
4	0	0	0	0	535	506	0	1018	37	0	
5	0	0	0	0	519	508	0	1018	37	0	
6	0	0	0	0	504	510	0	1018	38	0	
7	0	0	0	0	492	508	0	1018	37	0	
8	0	0	0	0	493	508	0	1018	37	0	
9	0	0	0	0	492	509	0	1018	37	0	
10	0	0	0	0	493	510	0	1018	37	0	
11	0	0	0	0	483	510	0	1018	37	0	
12	0	0	0	0	483	508	0	1018	37	0	
13	0	0	0	0	496	509	0	1017	37	0	
14	0	0	0	0	500	508	0	923	38	0	
15	0	0	0	0	504	508	0	688	37	0	
0	0	0	0	0	512	509	0	407	37	0	
1	0	0	0	0	508	506	0	135	37	0	
2	0	0	0	0	496	505	0	0	37	0	
3	0	0	0	0	507	506	0	0	37	0	
4	0	0	0	0	515	507	0	0	37	0	
5	0	0	0	0	516	506	0	0	37	0	
6	0	0	0	0	519	507	0	0	38	0	
7	0	0	0	0	524	507	0	0	37	0	
8	0	0	0	0	519	508	0	0	37	0	
9	0	0	0	0	515	509	0	0	37	0	
10	0	0	0	0	515	509	0	0	37	0	
11	0	0	0	0	508	509	0	0	37	0	
12	0	0	0	0	500	511	0	0	37	0	
13	0	0	0	0	492	511	0	0	37	0	
14	0	0	0	0	491	511	0	0	38	0	
15	0	0	0	0	499	509	0	0	37	0	
0	0	0	0	0	489	508	0	0	37	0	
1	0	0	0	0	473	508	0	0	37	0	
2	0	0	0	0	476	509	0	0	37	0	
3	0	0	0	0	472	512	0	0	37	0	
4	0	0	0	0	479	513	0	0	37	0	
5	0	0	0	0	507	510	0	0	37	0	
6	0	0	0	0	513	508	0	0	38	0	
7	0	0	0	0	519	508	0	0	37	0	
8	0	0	0	0	527	509	0	0	37	0	
9	0	0	0	0	531	510	0	0	37	0	
10	0	0	0	0	531	508	0	0	37	0	
11	0	0	0	0	525	508	0	0	37	0	
12	0	0	0	0	521	507	0	0	37	0	
13	0	0	0	0	515	508	0	0	37	0	
14	0	0	0	0	510	507	0	0	38	0	
15	0	0	0	0	496	505	0	0	37	0	
0	0	0	0	0	462	507	0	0	37	0	
1	0	0	0	0	443	507	0	0	37	0	
2	0	0	0	0	459	508	0	748	37	0	
3	0	0	0	0	488	508	0	1018	37	0	
4	0	0	0	0	516	506	0	1018	37	0	
5	0	0	0	0	534	505	0	1018	37	0	
6	0	0	0	0	553	505	0	1018	37	0	
7	0	0	0	0	575	507	0	1018	37	0	
8	0	0	0	0	585	507	0	1018	37	0	
9	0	0	0	0	581	507	0	1018	37	0	
10	0	0	0	0	581	508	0	1018	37	0	
11	0	0	0	0	584	507	0	1018	37	0	
12	0	0	0	0	574	509	0	1018	37	0	
13	0	0	0	0	560	510	0	1018	37	0	
14	0	0	0	0	545	509	0	1018	37	0	
15	0	0	0	0	518	510	0	1018	37	0	
0	0	0	0	0	490	507	0	1018	37	0	
1	0	0	0	0	475	508	0	1018	37	0	
2	0	0	0	0	457	509	0	1018	37	0	
3	0	0	0	0	439	511	0	1018	37	0	
4	0	0	0	0	450	510	0	1018	37	0	
5	0	0	0	0	470	511	0	1018	37	0	
6	0	0	0	0	484	512	0	1018	37	0	
7	0	0	0	0	487	511	0	1018	37	0	
8	0	0	0	0	482	509	0	1018	37	0	
9	0	0	0	0	492	509	0	1018	37	0	
10	0	0	0	0	504	508	0	1018	37	0	
11	0	0	0	0	505	505	0	1018	37	0	
12	0	0	0	0	508	504	0	1018	37	0	
13	0	0	0	0	511	505	0	1018	37	0	
14	0	0	0	0	516	505	0	1018	37	0	
15	0	0	0	0	514	507	0	1018	37	0	
0	0	0	0	0	500	508	0	1018	37	0	
1	0	0	0	0	497	508	0	1018	37	0	
2	0	0	0	0	496	507	0	1018	37	0	
3	0	0	0	0	497	507	0	1018	37	0	
4	0	0	0	0	504	508	0	1018	37	0	
5	0	0	0	0	511	507	0	861	37	0	
6	0	0	0	0	514	508	0	647	38	0	
7	0	0	0	0	515	508	0	504	37	0	
8	0	0	0	0	511	508	0	379	37	0	
9	0	0	0	0	502	508	0	206	37	0	
10	0	0	0	0	497	508	0	27	37	0	
11	0	0	0	0	497	508	0	0	37	0	
12	0	0	0	0	493	507	0	0	37	0	
13	0	0	0	0	477	507	0	0	37	0	
14	0	0	0	0	467	508	0	0	38	0	
15	0	0	0	0	466	508	0	0	37	0	
0	0	0	0	0	467	509	0	0	37	0	
1	0	0	0	0	467	510	0	0	37	0	
2	0	0	0	0	494	510	0	0	37	0	
3	0	0	0	0	536	509	0	0	37	0	
4	0	0	0	0	570	509	0	0	37	0	
5	0	0	0	0	590	510	0	0	37	0	
6	0	0	0	0	602	510	0	0	37	0	
7	0	0	0	0	608	510	0	0	37	0	
8	0	0	0	0	600	508	0	0	37	0	
9	0	0	0	0	574	508	0	0	37	0	
10	0	0	0	0	549	508	0	0	37	0	
11	0	0	0	0	539	508	0	0	37	0	
12	0	0	0	0	539	508	0	0	37	0	
13	0	0	0	0	529	508	0	0	37	0	
14	0	0	0	0	502	507	0	0	37	0	
15	0	0	0	0	467	506	0	0	37	0	
0	0	0	0	0	430	505	0	0	37	0	
1	0	0	0	0	420	505	0	112	37	0	
2	0	0	0	0	455	506	0	201	37	0	
3	0	0	0	0	475	508	0	246	37	0	
4	0	0	0	0	479	507	0	360	37	0	
5	0	0	0	0	487	508	0	585	37	0	
6	0	0	0	0	492	507	0	893	37	0	
7	0	0	0	0	506	507	0	1018	37	0	
8	0	0	0	0	507	508	0	1018	37	0	
9	0	0	0	0	498	508	0	1018	37	0	
10	0	0	0	0	493	508	0	1018	37	0	
11	0	0	0	0	492	509	0	1018	37	0	
12	0	0	0	0	482	507	0	485	37	0	
13	0	0	0	0	463	507	0	0	37	0	
14	0	0	0	0	462	508	0	0	37	0	
15	0	0	0	0	483	506	0	0	37	0	
0	0	0	0	0	502	506	0	0	37	0	
1	0	0	0	0	520	506	0	0	37	0	
2	0	0	0	0	520	506	0	0	37	0	
3	0	0	0	0	526	505	0	0	37	0	
4	0	0	0	0	538	505	0	0	37	0	
5	0	0	0	0	546	505	0	0	37	0	
6	0	0	0	0	548	505	0	0	37	0	
7	0	0	0	0	553	506	0	0	37	0	
8	0	0	0	0	551	507	0	0	37	0	
9	0	0	0	0	521	504	0	0	37	0	
10	0	0	0	0	488	506	0	0	37	0	
11	0	0	0	0	475	507	0	0	37	0	
12	0	0	0	0	479	505	0	0	37	0	
13	0	0	0	0	499	506	0	0	37	0	
14	0	0	0	0	528	507	0	0	37	0	
15	0	0	0	0	538	505	0	0	37	0	
0	0	0	0	0	543	504	0	0	37	0	
1	0	0	0	0	546	506	0	0	37	0	
2	0	0	0	0	550	507	0	0	37	0	
3	0	0	0	0	547	506	0	0	37	0	
4	0	0	0	0	534	508	0	0	37	0	
5	0	0	0	0	528	510	0	0	37	0	
6	0	0	0	0	524	510	0	0	37	0	
7	0	0	0	0	524	509	0	0	37	0	
8	0	0	0	0	516	508	0	0	37	0	
9	0	0	0	0	508	508	0	0	37	0	
10	0	0	0	0	505	508	0	0	37	0	
11	0	0	0	0	500	508	0	0	37	0	
12	0	0	0	0	496	508	0	0	37	0	
13	0	0	0	0	508	509	0	0	37	0	
14	0	0	0	0	510	510	0	414	37	0	
15	0	0	0	0	500	509	0	774	37	0	
0	0	0	0	0	472	508	0	1018	37	0	
1	0	0	0	0	458	508	0	1018	37	0	
2	0	0	0	0	477	507	0	1018	37	0	
3	0	0	0	0	502	509	0	1018	37	0	
4	0	0	0	0	508	508	0	1018	37	0	
5	0	0	0	0	507	507	0	1018	37	0	
6	0	0	0	0	510	507	0	1018	37	0	
7	0	0	0	0	515	507	0	1018	37	0	
8	0	0	0	0	514	507	0	1018	37	0	
9	0	0	0	0	512	508	0	1018	37	0	
10	0	0	0	0	510	506	0	1018	37	0	
11	0	0	0	0	503	506	0	1018	37	0	
12	0	0	0	0	496	507	0	1018	37	0	
13	0	0	0	0	498	507	0	1018	37	0	
14	0	0	0	0	500	506	0	1018	38	0	
15	0	0	0	0	503	505	0	1018	37	0	
0	0	0	0	0	508	507	0	1018	37	0	
1	0	0	0	0	506	508	0	1018	37	0	
2	0	0	0	0	506	509	0	1018	37	0	
3	0	0	0	0	504	511	0	1018	37	0	
4	0	0	0	0	506	511	0	1018	37	0	
5	0	0	0	0	507	508	0	1018	37	0	
6	0	0	0	0	510	509	0	1018	38	0	
7	0	0	0	0	508	508	0	1018	37	0	
8	0	0	0	0	504	507	0	1017	37	0	
9	0	0	0	0	502	505	0	1018	37	0	
10	0	0	0	0	500	506	0	1018	37	0	
11	0	0	0	0	502	507	0	1018	37	0	
12	0	0	0	0	508	507	0	1018	37	0	
13	0	0	0	0	513	505	0	1018	37	0	
14	0	0	0	0	515	505	0	1018	38	0	
15	0	0	0	0	522	506	0	1018	37	0	
0	0	0	0	0	532	505	0	1018	37	0	
1	0	0	0	0	545	504	0	1018	37	0	
2	0	0	0	0	552	505	0	1018	37	0	
3	0	0	0	0	547	504	0	1018	37	0	
4	0	0	0	0	525	505	0	1018	37	0	
5	0	0	0	0	492	505	0	1018	37	0	
6	0	0	0	0	469	504	0	1018	38	0	
7	0	0	0	0	451	506	0	1018	37	0	
8	0	0	0	0	439	506	0	1018	37	0	
9	0	0	0	0	467	507	0	1018	37	0	
10	0	0	0	0	491	506	0	1018	37	0	
11	0	0	0	0	498	507	0	1018	37	0	
12	0	0	0	0	515	508	0	1018	37	0	
13	0	0	0	0	524	508	0	1018	37	0	
14	0	0	0	0	528	507	0	553	38	0	
15	0	0	0	0	524	506	0	2	37	0	
0	0	0	0	0	520	507	0	0	37	0	
1	0	0	0	0	521	506	0	0	37	0	
2	0	0	0	0	515	504	0	0	37	0	
3	0	0	0	0	517	507	0	0	37	0	
4	0	0	0	0	516	507	0	0	37	0	
5	0	0	0	0	511	506	0	0	37	0	
6	0	0	0	0	513	507	0	0	38	0	
7	0	0	0	0	518	506	0	0	37	0	
8	0	0	0	0	521	506	0	0	37	0	
9	0	0	0	0	523	507	0	0	37	0	
10	0	0	0	0	525	506	0	0	37	0	
11	0	0	0	0	519	506	0	0	37	0	
12	0	0	0	0	504	506	0	0	37	0	
13	0	0	0	0	494	506	0	0	37	0	
14	0	0	0	0	496	506	0	0	38	0	
15	0	0	0	0	499	507	0	0	37	0	
0	0	0	0	0	505	506	0	0	37	0	
1	0	0	0	0	514	508	0	0	37	0	
2	0	0	0	0	519	508	0	0	37	0	
3	0	0	0	0	526	507	0	0	37	0	
4	0	0	0	0	523	507	0	0	37	0	
5	0	0	0	0	506	508	0	0	37	0	
6	0	0	0	0	486	508	0	0	38	0	
7	0	0	0	0	479	507	0	0	37	0	
8	0	0	0	0	489	508	0	0	37	0	
9	0	0	0	0	503	506	0	0	37	0	
10	0	0	0	0	511	505	0	0	37	0	
11	0	0	0	0	514	507	0	0	37	0	
12	0	0	0	0	522	507	0	0	37	0	
13	0	0	0	0	533	508	0	0	37	0	
14	0	0	0	0	525	508	0	0	38	0	
15	0	0	0	0	511	508	0	0	37	0	
0	0	0	0	0	499	509	0	0	37	0	
1	0	0	0	0	504	509	0	0	37	0	
2	0	0	0	0	509	509	0	0	37	0	
3	0	0	0	0	512	508	0	0	37	0	
4	0	0	0	0	512	507	0	0	37	0	
5	0	0	0	0	510	507	0	0	37	0	
6	0	0	0	0	508	509	0	0	38	0	
7	0	0	0	0	505	508	0	0	37	0	
8	0	0	0	0	502	507	0	0	37	0	
9	0	0	0	0	504	508	0	0	37	0	
10	0	0	0	0	508	507	0	0	37	0	
11	0	0	0	0	513	508	0	0	37	0	
12	0	0	0	0	515	509	0	0	37	0	
13	0	0	0	0	510	508	0	0	37	0	
14	0	0	0	0	510	511	0	0	38	0	
15	0	0	0	0	505	511	0	0	37	0	
0	0	0	0	0	506	510	0	0	37	0	
1	0	0	0	0	512	508	0	0	37	0	
2	0	0	0	0	515	506	0	0	37	0	
3	0	0	0	0	520	506	0	0	37	0	
4	0	0	0	0	518	509	0	0	37	0	
5	0	0	0	0	519	509	0	0	37	0	
6	0	0	0	0	519	508	0	0	38	0	
7	0	0	0	0	515	508	0	0	37	0	
8	0	0	0	0	510	508	0	0	37	0	
9	0	0	0	0	511	507	0	0	37	0	
10	0	0	0	0	521	508	0	0	37	0	
11	0	0	0	0	520	507	0	0	37	0	
12	0	0	0	0	511	506	0	0	37	0	
13	0	0	0	0	496	508	0	0	37	0	
14	0	0	0	0	490	509	0	0	38	0	
15	0	0	0	0	495	509	0	0	37	0	
0	0	0	0	0	515	508	0	0	37	0	
1	0	0	0	0	529	508	0	0	37	0	
2	0	0	0	0	520	507	0	0	37	0	
3	0	0	0	0	461	507	0	0	37	0	
4	0	0	0	0	408	508	0	0	37	0	
5	0	0	0	0	428	506	0	0	37	0	
6	0	0	0	0	460	507	0	0	38	0	
7	0	0	0	0	483	505	0	0	37	0	
8	0	0	0	0	481	505	0	0	37	0	
9	0	0	0	0	479	506	0	0	37	0	
10	0	0	0	0	503	506	0	0	37	0	
11	0	0	0	0	528	505	0	0	37	0	
12	0	0	0	0	538	506	0	305	37	0	
13	0	0	0	0	540	506	0	569	37	0	
14	0	0	0	0	534	506	0	953	38	0	
15	0	0	0	0	509	506	0	1017	37	0	
0	0	0	0	0	507	508	0	1018	37	0	
1	0	0	0	0	525	510	0	1018	37	0	
2	0	0	0	0	542	510	0	1018	37	0	
3	0	0	0	0	550	510	0	1018	37	0	
4	0	0	0	0	535	508	0	1018	37	0	
5	0	0	0	0	525	507	0	1018	37	0	
6	0	0	0	0	549	509	0	881	38	0	
7	0	0	0	0	558	509	0	803	37	0	
8	0	0	0	0	558	510	0	805	37	0	
9	0	0	0	0	561	508	0	788	37	0	
10	0	0	0	0	557	508	0	792	37	0	
11	0	0	0	0	548	508	0	785	37	0	
12	0	0	0	0	533	508	0	812	37	0	
13	0	0	0	0	524	509	0	880	37	0	
14	0	0	0	0	522	508	0	1010	38	0	
15	0	0	0	0	515	508	0	1018	37	0	
0	0	0	0	0	499	508	0	1018	37	0	
1	0	0	0	0	481	510	0	1018	37	0	
2	0	0	0	0	476	508	0	1018	37	0	
3	0	0	0	0	467	510	0	1018	37	0	
4	0	0	0	0	466	508	0	1018	37	0	
5	0	0	0	0	472	508	0	1018	37	0	
6	0	0	0	0	479	509	0	1018	37	0	
7	0	0	0	0	490	510	0	1018	37	0	
8	0	0	0	0	499	511	0	1018	37	0	
9	0	0	0	0	496	510	0	1018	37	0	
10	0	0	0	0	491	511	0	1018	37	0	
11	0	0	0	0	496	511	0	1018	37	0	
12	0	0	0	0	498	511	0	1018	37	0	
13	0	0	0	0	494	510	0	1018	37	0	
14	0	0	0	0	497	511	0	1018	37	0	
15	0	0	0	0	502	509	0	1018	37	0	
0	0	0	0	0	508	509	0	1018	37	0	
1	0	0	0	0	514	508	0	1018	37	0	
2	0	0	0	0	521	508	0	1018	37	0	
3	0	0	0	0	520	509	0	1018	37	0	
4	0	0	0	0	526	507	0	1018	37	0	
5	0	0	0	0	535	508	0	1018	37	0	
6	0	0	0	0	535	508	0	1018	37	0	
7	0	0	0	0	530	507	0	1018	37	0	
8	0	0	0	0	531	509	0	1018	37	0	
9	0	0	0	0	527	510	0	1018	37	0	
10	0	0	0	0	515	509	0	1018	37	0	
11	0	0	0	0	507	509	0	1018	37	0	
12	0	0	0	0	487	508	0	1018	37	0	
13	0	0	0	0	474	508	0	1018	37	0	
14	0	0	0	0	468	508	0	1018	37	0	
15	0	0	0	0	472	507	0	1018	37	0	
0	0	0	0	0	479	508	0	1018	37	0	
1	0	0	0	0	497	507	0	1018	37	0	
2	0	0	0	0	519	507	0	1018	37	0	
3	0	0	0	0	526	508	0	1018	37	0	
4	0	0	0	0	531	507	0	1018	37	0	
5	0	0	0	0	530	505	0	1018	37	0	
6	0	0	0	0	519	507	0	1018	38	0	
7	0	0	0	0	522	506	0	1018	37	0	
8	0	0	0	0	508	507	0	1018	37	0	
9	0	0	0	0	487	507	0	1018	37	0	
10	0	0	0	0	508	505	0	1018	37	0	
11	0	0	0	0	525	505	0	1018	37	0	
12	0	0	0	0	531	505	0	1018	37	0	
13	0	0	0	0	514	506	0	1017	37	0	
14	0	0	0	0	505	507	0	1018	37	0	
15	0	0	0	0	505	508	0	1018	37	0	
0	0	0	0	0	479	508	0	1018	37	0	
1	0	0	0	0	486	509	0	1018	37	0	
2	0	0	0	0	514	510	0	1018	37	0	
3	0	0	0	0	539	510	0	1018	37	0	
4	0	0	0	0	548	511	0	1018	37	0	
5	0	0	0	0	561	510	0	1018	37	0	
6	0	0	0	0	552	512	0	1018	37	0	
7	0	0	0	0	532	511	0	1018	37	0	
8	0	0	0	0	491	510	0	1018	37	0	
9	0	0	0	0	447	510	0	1018	37	0	
10	0	0	0	0	433	510	0	1018	37	0	
11	0	0	0	0	451	510	0	1018	37	0	
12	0	0	0	0	488	511	0	1018	37	0	
13	0	0	0	0	524	510	0	1018	37	0	
14	0	0	0	0	541	510	0	1018	38	0	
15	0	0	0	0	536	508	0	1018	37	0	
0	0	0	0	0	520	508	0	1018	37	0	
1	0	0	0	0	508	509	0	1018	37	0	
2	0	0	0	0	496	509	0	1018	37	0	
3	0	0	0	0	492	509	0	1018	37	0	
4	0	0	0	0	472	509	0	1018	37	0	
5	0	0	0	0	465	507	0	1018	37	0	
6	0	0	0	0	459	508	0	1018	37	0	
7	0	0	0	0	411	509	0	1018	37	0	
8	0	0	0	0	440	510	0	1018	37	0	
9	0	0	0	0	481	509	0	1018	37	0	
10	0	0	0	0	516	508	0	1018	37	0	
11	0	0	0	0	532	508	0	1018	37	0	
12	0	0	0	0	556	508	0	1018	37	0	
13	0	0	0	0	582	509	0	1018	37	0	
14	0	0	0	0	596	508	0	1018	37	0	
15	0	0	0	0	599	511	0	1018	37	0	
0	0	0	0	0	588	512	0	1018	37	0	
1	0	0	0	0	591	511	0	1018	37	0	
2	0	0	0	0	599	511	0	1018	37	0	
3	0	0	0	0	594	508	0	1018	37	0	
4	0	0	0	0	569	509	0	1018	37	0	
5	0	0	0	0	545	508	0	1018	37	0	
6	0	0	0	0	519	508	0	1018	38	0	
7	0	0	0	0	485	507	0	1018	37	0	
8	0	0	0	0	463	507	0	1018	37	0	
9	0	0	0	0	451	509	0	1018	37	0	
10	0	0	0	0	461	509	0	1017	37	0	
11	0	0	0	0	471	508	0	1018	37	0	
12	0	0	0	0	466	508	0	1018	37	0	
13	0	0	0	0	458	508	0	1018	37	0	
14	0	0	0	0	458	509	0	1018	38	0	
15	0	0	0	0	460	507	0	1018	37	0	
0	0	0	0	0	460	507	0	1018	37	0	
1	0	0	0	0	472	507	0	1018	37	0	
2	0	0	0	0	484	508	0	1018	37	0	
3	0	0	0	0	500	506	0	1018	37	0	
4	0	0	0	0	506	507	0	1018	37	0	
5	0	0	0	0	519	508	0	1018	37	0	
6	0	0	0	0	524	506	0	1018	38	0	
7	0	0	0	0	534	504	0	1018	37	0	
8	0	0	0	0	551	505	0	1017	37	0	
9	0	0	0	0	567	505	0	705	37	0	
10	0	0	0	0	545	504	0	151	37	0	
11	0	0	0	0	509	507	0	0	37	0	
12	0	0	0	0	478	508	0	0	37	0	
13	0	0	0	0	474	506	0	0	37	0	
14	0	0	0	0	499	506	0	0	38	0	
15	0	0	0	0	508	505	0	0	37	0	
0	0	0	0	0	511	507	0	0	37	0	
1	0	0	0	0	510	506	0	0	37	0	
2	0	0	0	0	481	507	0	0	37	0	
3	0	0	0	0	423	508	0	0	37	0	
4	0	0	0	0	385	508	0	0	37	0	
5	0	0	0	0	375	509	0	0	37	0	
6	0	0	0	0	378	508	0	0	37	0	
7	0	0	0	0	370	506	0	0	37	0	
8	0	0	0	0	426	508	0	0	37	0	
9	0	0	0	0	496	508	0	0	37	0	
10	0	0	0	0	549	508	0	0	37	0	
11	0	0	0	0	605	507	0	0	37	0	
12	0	0	0	0	643	507	0	0	37	0	
13	0	0	0	0	669	506	0	0	37	0	
14	0	0	0	0	681	505	0	0	37	0	
15	0	0	0	0	685	506	0	0	37	0	
0	0	0	0	0	671	506	0	0	37	0	
1	0	0	0	0	650	508	0	0	37	0	
2	0	0	0	0	627	508	0	0	37	0	
3	0	0	0	0	602	508	0	0	37	0	
4	0	0	0	0	575	508	0	0	37	0	
5	0	0	0	0	548	507	0	0	37	0	
6	0	0	0	0	516	508	0	0	37	0	
7	0	0	0	0	488	506	0	0	37	0	
8	0	0	0	0	473	507	0	0	37	0	
9	0	0	0	0	467	508	0	0	37	0	
10	0	0	0	0	456	507	0	0	37	0	
11	0	0	0	0	441	507	0	0	37	0	
12	0	0	0	0	439	507	0	0	37	0	
13	0	0	0	0	440	507	0	0	37	0	
14	0	0	0	0	452	509	0	0	37	0	
15	0	0	0	0	456	508	0	0	37	0	
0	0	0	0	0	458	508	0	0	37	0	
1	0	0	0	0	460	508	0	0	37	0	
2	0	0	0	0	470	509	0	0	37	0	
3	0	0	0	0	478	509	0	0	37	0	
4	0	0	0	0	482	507	0	0	37	0	
5	0	0	0	0	489	508	0	0	37	0	
6	0	0	0	0	497	508	0	0	37	0	
7	0	0	0	0	496	508	0	0	37	0	
8	0	0	0	0	504	508	0	0	37	0	
9	0	0	0	0	504	507	0	0	37	0	
10	0	0	0	0	505	508	0	0	37	0	
11	0	0	0	0	505	507	0	0	37	0	
12	0	0	0	0	503	508	0	0	37	0	
13	0	0	0	0	505	509	0	0	37	0	
14	0	0	0	0	509	508	0	0	37	0	
15	0	0	0	0	511	507	0	0	37	0	
0	0	0	0	0	514	505	0	0	37	0	
1	0	0	0	0	510	507	0	0	37	0	
2	0	0	0	0	501	506	0	0	37	0	
3	0	0	0	0	490	507	0	0	37	0	
4	0	0	0	0	492	506	0	0	37	0	
5	0	0	0	0	518	507	0	0	37	0	
6	0	0	0	0	528	507	0	0	37	0	
7	0	0	0	0	523	508	0	142	37	0	
8	0	0	0	0	526	509	0	250	37	0	
9	0	0	0	0	537	510	0	417	37	0	
10	0	0	0	0	525	511	0	682	37	0	
11	0	0	0	0	512	510	0	700	37	0	
12	0	0	0	0	507	510	0	593	37	0	
13	0	0	0	0	503	507	0	483	37	0	
14	0	0	0	0	500	508	0	331	37	0	
15	0	0	0	0	517	510	0	224	37	0	
0	0	0	0	0	522	510	0	347	37	0	
1	0	0	0	0	516	510	0	455	37	0	
2	0	0	0	0	513	508	0	602	37	0	
3	0	0	0	0	511	505	0	738	37	0	
4	0	0	0	0	508	506	0	810	37	0	
5	0	0	0	0	501	507	0	858	37	0	
6	0	0	0	0	511	506	0	889	37	0	
7	0	0	0	0	517	505	0	955	37	0	
8	0	0	0	0	511	504	0	981	37	0	
9	0	0	0	0	503	505	0	934	37	0	
10	0	0	0	0	484	506	0	985	37	0	
11	0	0	0	0	484	507	0	968	37	0	
12	0	0	0	0	509	506	0	1017	37	0	
13	0	0	0	0	520	506	0	1018	37	0	
14	0	0	0	0	519	508	0	1018	37	0	
15	0	0	0	0	519	508	0	1018	37	0	
0	0	0	0	0	520	508	0	1018	37	0	
1	0	0	0	0	515	508	0	1018	37	0	
2	0	0	0	0	521	509	0	1018	37	0	
3	0	0	0	0	529	510	0	1018	37	0	
4	0	0	0	0	524	510	0	1017	37	0	
5	0	0	0	0	509	509	0	1017	37	0	
6	0	0	0	0	487	508	0	859	37	0	
7	0	0	0	0	483	507	0	742	37	0	
8	0	0	0	0	481	507	0	635	37	0	
9	0	0	0	0	490	506	0	511	37	0	
10	0	0	0	0	507	506	0	460	37	0	
11	0	0	0	0	506	506	0	256	37	0	
12	0	0	0	0	510	507	0	0	37	0	
13	0	0	0	0	507	507	0	0	37	0	
14	0	0	0	0	502	508	0	0	37	0	
15	0	0	0	0	509	509	0	0	37	0	
0	0	0	0	0	518	508	0	0	37	0	
1	0	0	0	0	523	509	0	0	37	0	
2	0	0	0	0	523	509	0	0	37	0	
3	0	0	0	0	519	509	0	0	37	0	
4	0	0	0	0	515	509	0	0	37	0	
5	0	0	0	0	503	508	0	0	37	0	
6	0	0	0	0	492	509	0	0	37	0	
7	0	0	0	0	483	508	0	0	37	0	
8	0	0	0	0	488	509	0	0	37	0	
9	0	0	0	0	499	510	0	0	37	0	
10	0	0	0	0	501	508	0	0	37	0	
11	0	0	0	0	494	510	0	0	37	0	
12	0	0	0	0	503	510	0	0	37	0	
13	0	0	0	0	517	509	0	0	37	0	
14	0	0	0	0	532	510	0	0	37	0	
15	0	0	0	0	530	509	0	0	37	0	
0	0	0	0	0	528	510	0	0	37	0	
1	0	0	0	0	531	509	0	0	37	0	
2	0	0	0	0	528	508	0	0	37	0	
3	0	0	0	0	529	507	0	0	37	0	
4	0	0	0	0	528	506	0	0	37	0	
5	0	0	0	0	525	504	0	0	37	0	
6	0	0	0	0	523	504	0	0	37	0	
7	0	0	0	0	520	506	0	0	37	0	
8	0	0	0	0	516	506	0	0	37	0	
9	0	0	0	0	511	506	0	0	37	0	
10	0	0	0	0	506	506	0	0	37	0	
11	0	0	0	0	501	506	0	0	37	0	
12	0	0	0	0	492	505	0	0	37	0	
13	0	0	0	0	496	507	0	0	37	0	
14	0	0	0	0	499	508	0	0	38	0	
15	0	0	0	0	498	508	0	0	37	0	
0	0	0	0	0	500	508	0	0	37	0	
1	0	0	0	0	502	510	0	0	37	0	
2	0	0	0	0	502	510	0	0	37	0	
3	0	0	0	0	504	508	0	0	37	0	
4	0	0	0	0	505	507	0	0	37	0	
5	0	0	0	0	507	506	0	0	37	0	
6	0	0	0	0	505	506	0	0	38	0	
7	0	0	0	0	509	507	0	0	37	0	
8	0	0	0	0	508	508	0	0	37	0	
9	0	0	0	0	508	509	0	0	37	0	
10	0	0	0	0	512	507	0	0	37	0	
11	0	0	0	0	508	509	0	0	37	0	
12	0	0	0	0	508	510	0	0	37	0	
13	0	0	0	0	510	508	0	0	37	0	
14	0	0	0	0	510	507	0	0	38	0	
15	0	0	0	0	510	507	0	0	37	0	
0	0	0	0	0	509	508	0	0	37	0	
1	0	0	0	0	514	506	0	0	37	0	
2	0	0	0	0	519	504	0	0	37	0	
3	0	0	0	0	522	505	0	0	37	0	
4	0	0	0	0	533	504	0	0	37	0	
5	0	0	0	0	532	505	0	0	37	0	
6	0	0	0	0	523	506	0	167	38	0	
7	0	0	0	0	498	505	0	161	37	0	
8	0	0	0	0	484	506	0	151	37	0	
9	0	0	0	0	469	506	0	2	37	0	
10	0	0	0	0	465	506	0	0	37	0	
11	0	0	0	0	486	507	0	0	37	0	
12	0	0	0	0	507	507	0	0	37	0	
13	0	0	0	0	512	508	0	0	37	0	
14	0	0	0	0	510	508	0	0	38	0	
15	0	0	0	0	510	510	0	0	37	0	
0	0	0	0	0	512	510	0	0	37	0	
1	0	0	0	0	509	509	0	0	37	0	
2	0	0	0	0	511	512	0	0	37	0	
3	0	0	0	0	508	510	0	0	37	0	
4	0	0	0	0	510	509	0	0	37	0	
5	0	0	0	0	523	510	0	0	37	0	
6	0	0	0	0	530	509	0	0	38	0	
7	0	0	0	0	528	509	0	0	37	0	
8	0	0	0	0	526	510	0	0	37	0	
9	0	0	0	0	524	510	0	0	37	0	
10	0	0	0	0	520	510	0	0	37	0	
11	0	0	0	0	517	510	0	0	37	0	
12	0	0	0	0	512	511	0	0	37	0	
13	0	0	0	0	506	511	0	0	37	0	
14	0	0	0	0	505	511	0	0	38	0	
15	0	0	0	0	508	512	0	0	37	0	
0	0	0	0	0	517	513	0	75	37	0	
1	0	0	0	0	522	513	0	255	37	0	
2	0	0	0	0	517	511	0	459	37	0	
3	0	0	0	0	508	510	0	771	37	0	
4	0	0	0	0	507	509	0	1017	37	0	
5	0	0	0	0	499	509	0	1018	37	0	
6	0	0	0	0	494	509	0	1018	38	0	
7	0	0	0	0	479	509	0	1018	37	0	
8	0	0	0	0	468	508	0	1018	37	0	
9	0	0	0	0	471	509	0	1018	37	0	
10	0	0	0	0	483	509	0	1018	37	0	
11	0	0	0	0	492	510	0	1018	37	0	
12	0	0	0	0	510	509	0	1018	37	0	
13	0	0	0	0	504	508	0	1018	37	0	
14	0	0	0	0	504	509	0	1018	38	0	
15	0	0	0	0	509	509	0	1018	37	0	
0	0	0	0	0	513	508	0	1018	37	0	
1	0	0	0	0	518	508	0	1018	37	0	
2	0	0	0	0	516	509	0	1018	37	0	
3	0	0	0	0	495	510	0	1018	37	0	
4	0	0	0	0	451	509	0	1018	37	0	
5	0	0	0	0	445	508	0	1018	38	0	
6	0	0	0	0	469	509	0	1018	38	0	
7	0	0	0	0	470	509	0	1018	37	0	
8	0	0	0	0	488	510	0	1018	38	0	
9	0	0	0	0	523	509	0	1018	38	0	
10	0	0	0	0	543	510	0	1018	37	0	
11	0	0	0	0	553	509	0	1018	38	0	
12	0	0	0	0	559	508	0	1018	38	0	
13	0	0	0	0	568	508	0	1018	38	0	
14	0	0	0	0	575	508	0	1018	38	0	
15	0	0	0	0	579	507	0	1018	38	0	
0	0	0	0	0	588	508	0	1018	38	0	
1	0	0	0	0	582	509	0	1018	38	0	
2	0	0	0	0	569	508	0	1018	37	0	
3	0	0	0	0	555	507	0	1018	38	0	
4	0	0	0	0	540	507	0	1018	38	0	
5	0	0	0	0	532	504	0	1018	38	0	
6	0	0	0	0	514	505	0	1018	38	0	
7	0	0	0	0	496	506	0	1018	38	0	
8	0	0	0	0	468	507	0	1018	38	0	
9	0	0	0	0	455	507	0	1018	38	0	
10	0	0	0	0	461	507	0	1018	37	0	
11	0	0	0	0	470	507	0	1018	38	0	
12	0	0	0	0	482	507	0	1018	38	0	
13	0	0	0	0	482	505	0	1018	38	0	
14	0	0	0	0	494	505	0	1018	38	0	
15	0	0	0	0	496	505	0	1018	38	0	
0	0	0	0	0	495	506	0	1018	37	0	
1	0	0	0	0	497	506	0	1018	38	0	
2	0	0	0	0	499	506	0	1018	37	0	
3	0	0	0	0	500	508	0	1018	37	0	
4	0	0	0	0	513	508	0	1018	38	0	
5	0	0	0	0	522	508	0	1018	37	0	
6	0	0	0	0	526	507	0	1018	38	0	
7	0	0	0	0	528	506	0	1018	37	0	
8	0	0	0	0	507	506	0	1018	37	0	
9	0	0	0	0	486	507	0	1018	37	0	
10	0	0	0	0	475	507	0	1018	37	0	
11	0	0	0	0	488	509	0	1018	37	0	
12	0	0	0	0	504	507	0	1018	37	0	
13	0	0	0	0	518	507	0	1018	37	0	
14	0	0	0	0	513	506	0	1018	38	0	
15	0	0	0	0	514	506	0	1018	37	0	
0	0	0	0	0	524	507	0	1018	37	0	
1	0	0	0	0	524	507	0	1018	37	0	
2	0	0	0	0	515	507	0	1018	37	0	
3	0	0	0	0	509	507	0	1018	37	0	
4	0	0	0	0	507	506	0	1018	37	0	
5	0	0	0	0	498	507	0	684	37	0	
6	0	0	0	0	483	508	0	487	38	0	
7	0	0	0	0	492	507	0	194	37	0	
8	0	0	0	0	493	509	0	0	37	0	
9	0	0	0	0	488	508	0	0	37	0	
10	0	0	0	0	489	507	0	0	37	0	
11	0	0	0	0	496	506	0	0	37	0	
12	0	0	0	0	505	505	0	0	37	0	
13	0	0	0	0	509	505	0	0	37	0	
14	0	0	0	0	512	506	0	0	38	0	
15	0	0	0	0	541	506	0	0	37	0	
0	0	0	0	0	546	505	0	0	37	0	
1	0	0	0	0	552	507	0	0	37	0	
2	0	0	0	0	545	506	0	0	37	0	
3	0	0	0	0	537	506	0	0	37	0	
4	0	0	0	0	536	506	0	0	37	0	
5	0	0	0	0	524	508	0	0	37	0	
6	0	0	0	0	504	507	0	0	38	0	
7	0	0	0	0	491	507	0	0	37	0	
8	0	0	0	0	477	508	0	0	37	0	
9	0	0	0	0	464	508	0	0	37	0	
10	0	0	0	0	455	508	0	0	37	0	
11	0	0	0	0	461	508	0	248	37	0	
12	0	0	0	0	466	508	0	354	37	0	
13	0	0	0	0	472	507	0	437	37	0	
14	0	0	0	0	497	510	0	543	38	0	
15	0	0	0	0	518	510	0	681	37	0	
0	0	0	0	0	518	508	0	734	37	0	
1	0	0	0	0	520	509	0	787	37	0	
2	0	0	0	0	522	509	0	661	37	0	
3	0	0	0	0	534	508	0	500	37	0	
4	0	0	0	0	542	508	0	435	37	0	
5	0	0	0	0	545	508	0	311	37	0	
6	0	0	0	0	553	509	0	121	37	0	
7	0	0	0	0	561	509	0	25	37	0	
8	0	0	0	0	560	509	0	0	37	0	
9	0	0	0	0	554	508	0	0	37	0	
10	0	0	0	0	547	506	0	0	37	0	
11	0	0	0	0	541	505	0	0	37	0	
12	0	0	0	0	531	505	0	0	37	0	
13	0	0	0	0	520	507	0	0	37	0	
14	0	0	0	0	514	508	0	0	37	0	
15	0	0	0	0	513	507	0	0	37	0	
0	0	0	0	0	505	507	0	0	37	0	
1	0	0	0	0	489	508	0	0	37	0	
2	0	0	0	0	484	508	0	0	37	0	
3	0	0	0	0	483	507	0	0	37	0	
4	0	0	0	0	477	507	0	0	37	0	
5	0	0	0	0	458	506	0	0	37	0	
6	0	0	0	0	455	506	0	0	37	0	
7	0	0	0	0	473	507	0	0	37	0	
8	0	0	0	0	496	507	0	0	37	0	
9	0	0	0	0	504	507	0	0	37	0	
10	0	0	0	0	496	507	0	0	37	0	
11	0	0	0	0	495	506	0	0	37	0	
12	0	0	0	0	499	507	0	0	37	0	
13	0	0	0	0	511	508	0	0	37	0	
14	0	0	0	0	513	507	0	0	37	0	
15	0	0	0	0	521	508	0	0	37	0	
0	0	0	0	0	523	510	0	0	37	0	
1	0	0	0	0	531	510	0	0	37	0	
2	0	0	0	0	531	509	0	0	37	0	
3	0	0	0	0	507	508	0	0	37	0	
4	0	0	0	0	488	508	0	0	37	0	
5	0	0	0	0	482	508	0	0	37	0	
6	0	0	0	0	417	508	0	0	37	0	
7	0	0	0	0	376	508	0	0	37	0	
8	0	0	0	0	368	509	0	0	37	0	
9	0	0	0	0	423	510	0	0	37	0	
10	0	0	0	0	493	510	0	0	37	0	
11	0	0	0	0	528	510	0	0	37	0	
12	0	0	0	0	535	510	0	0	37	0	
13	0	0	0	0	564	510	0	0	37	0	
14	0	0	0	0	583	508	0	0	37	0	
15	0	0	0	0	598	509	0	0	37	0	
0	0	0	0	0	602	508	0	0	37	0	
1	0	0	0	0	599	509	0	0	37	0	
2	0	0	0	0	599	505	0	0	37	0	
3	0	0	0	0	602	506	0	0	37	0	
4	0	0	0	0	603	508	0	0	37	0	
5	0	0	0	0	588	509	0	0	37	0	
6	0	0	0	0	541	507	0	0	37	0	
7	0	0	0	0	483	509	0	0	37	0	
8	0	0	0	0	422	508	0	0	37	0	
9	0	0	0	0	409	507	0	0	37	0	
10	0	0	0	0	421	508	0	0	37	0	
11	0	0	0	0	445	507	0	0	37	0	
12	0	0	0	0	462	505	0	0	37	0	
13	0	0	0	0	483	505	0	0	37	0	
14	0	0	0	0	500	508	0	0	37	0	
15	0	0	0	0	516	508	0	0	37	0	
0	0	0	0	0	524	508	0	0	37	0	
1	0	0	0	0	532	508	0	0	37	0	
2	0	0	0	0	542	507	0	0	37	0	
3	0	0	0	0	546	506	0	0	37	0	
4	0	0	0	0	549	505	0	0	37	0	
5	0	0	0	0	540	504	0	0	37	0	
6	0	0	0	0	533	504	0	0	37	0	
7	0	0	0	0	543	505	0	0	37	0	
8	0	0	0	0	544	506	0	0	37	0	
9	0	0	0	0	542	506	0	0	37	0	
10	0	0	0	0	530	506	0	0	37	0	
11	0	0	0	0	524	510	0	0	37	0	
12	0	0	0	0	511	511	0	0	37	0	
13	0	0	0	0	489	510	0	0	37	0	
14	0	0	0	0	481	508	0	0	37	0	
15	0	0	0	0	481	506	0	0	37	0	
0	0	0	0	0	483	507	0	0	37	0	
1	0	0	0	0	484	508	0	0	37	0	
2	0	0	0	0	487	508	0	0	37	0	
3	0	0	0	0	487	507	0	0	37	0	
4	0	0	0	0	479	505	0	486	37	0	
5	0	0	0	0	477	508	0	1008	37	0	
6	0	0	0	0	490	509	0	1018	37	0	
7	0	0	0	0	499	510	0	1018	37	0	
8	0	0	0	0	503	511	0	1018	37	0	
9	0	0	0	0	504	511	0	1018	37	0	
10	0	0	0	0	502	508	0	1018	37	0	
11	0	0	0	0	503	508	0	1017	37	0	
12	0	0	0	0	500	508	0	1018	37	0	
13	0	0	0	0	502	509	0	1018	37	0	
14	0	0	0	0	505	508	0	1018	37	0	
15	0	0	0	0	508	508	0	1018	37	0	
0	0	0	0	0	503	505	0	1018	37	0	
1	0	0	0	0	504	506	0	1018	37	0	
2	0	0	0	0	506	508	0	1018	37	0	
3	0	0	0	0	507	508	0	1018	37	0	
4	0	0	0	0	512	508	0	1018	37	0	
5	0	0	0	0	510	510	0	1017	37	0	
6	0	0	0	0	507	509	0	1018	37	0	
7	0	0	0	0	513	509	0	1018	37	0	
8	0	0	0	0	518	509	0	1018	37	0	
9	0	0	0	0	517	510	0	1018	37	0	
10	0	0	0	0	516	509	0	1018	37	0	
11	0	0	0	0	519	508	0	1018	37	0	
12	0	0	0	0	509	508	0	1018	37	0	
13	0	0	0	0	495	509	0	1018	37	0	
14	0	0	0	0	497	510	0	1018	38	0	
15	0	0	0	0	495	510	0	1018	37	0	
0	0	0	0	0	505	508	0	464	37	0	
1	0	0	0	0	523	507	0	0	37	0	
2	0	0	0	0	531	506	0	0	37	0	
3	0	0	0	0	531	506	0	0	37	0	
4	0	0	0	0	526	505	0	0	37	0	
5	0	0	0	0	518	506	0	0	37	0	
6	0	0	0	0	516	506	0	0	38	0	
7	0	0	0	0	507	505	0	0	37	0	
8	0	0	0	0	504	505	0	0	37	0	
9	0	0	0	0	508	505	0	0	37	0	
10	0	0	0	0	501	506	0	0	37	0	
11	0	0	0	0	496	506	0	0	37	0	
12	0	0	0	0	507	507	0	0	37	0	
13	0	0	0	0	510	508	0	0	37	0	
14	0	0	0	0	518	509	0	0	38	0	
15	0	0	0	0	520	509	0	0	37	0	
0	0	0	0	0	520	509	0	0	37	0	
1	0	0	0	0	518	507	0	0	37	0	
2	0	0	0	0	519	507	0	0	37	0	
3	0	0	0	0	510	508	0	0	37	0	
4	0	0	0	0	507	507	0	0	37	0	
5	0	0	0	0	505	508	0	0	37	0	
6	0	0	0	0	515	508	0	0	38	0	
7	0	0	0	0	512	508	0	0	37	0	
8	0	0	0	0	508	507	0	0	37	0	
9	0	0	0	0	464	507	0	0	37	0	
10	0	0	0	0	421	508	0	0	37	0	
11	0	0	0	0	429	505	0	0	37	0	
12	0	0	0	0	450	508	0	0	37	0	
13	0	0	0	0	456	505	0	0	37	0	
14	0	0	0	0	465	505	0	0	38	0	
15	0	0	0	0	500	505	0	0	37	0	
0	0	0	0	0	508	505	0	0	37	0	
1	0	0	0	0	511	504	0	0	37	0	
2	0	0	0	0	523	504	0	0	37	0	
3	0	0	0	0	537	504	0	0	37	0	
4	0	0	0	0	558	504	0	0	37	0	
5	0	0	0	0	580	503	0	0	37	0	
6	0	0	0	0	592	504	0	0	38	0	
7	0	0	0	0	594	505	0	0	37	0	
8	0	0	0	0	581	507	0	0	37	0	
9	0	0	0	0	572	507	0	0	37	0	
10	0	0	0	0	559	506	0	0	37	0	
11	0	0	0	0	544	508	0	0	37	0	
12	0	0	0	0	526	509	0	0	37	0	
13	0	0	0	0	510	508	0	0	37	0	
14	0	0	0	0	496	508	0	0	38	0	
15	0	0	0	0	476	508	0	0	37	0	
0	0	0	0	0	464	509	0	0	37	0	
1	0	0	0	0	453	508	0	0	37	0	
2	0	0	0	0	442	509	0	0	37	0	
3	0	0	0	0	440	510	0	0	37	0	
4	0	0	0	0	441	509	0	0	37	0	
5	0	0	0	0	452	511	0	0	37	0	
6	0	0	0	0	465	509	0	225	38	0	
7	0	0	0	0	480	508	0	509	37	0	
8	0	0	0	0	497	508	0	722	37	0	
9	0	0	0	0	516	509	0	886	37	0	
10	0	0	0	0	521	509	0	1018	37	0	
11	0	0	0	0	542	508	0	1018	37	0	
12	0	0	0	0	562	509	0	1018	37	0	
13	0	0	0	0	574	508	0	1018	37	0	
14	0	0	0	0	585	507	0	1018	38	0	
15	0	0	0	0	582	507	0	1018	37	0	
0	0	0	0	0	581	508	0	1018	37	0	
1	0	0	0	0	572	508	0	1018	37	0	
2	0	0	0	0	558	508	0	1018	37	0	
3	0	0	0	0	543	508	0	1018	37	0	
4	0	0	0	0	524	506	0	1018	37	0	
5	0	0	0	0	511	507	0	1018	37	0	
6	0	0	0	0	510	507	0	1018	38	0	
7	0	0	0	0	501	507	0	1018	37	0	
8	0	0	0	0	487	508	0	1018	37	0	
9	0	0	0	0	480	507	0	1018	37	0	
10	0	0	0	0	493	508	0	1018	37	0	
11	0	0	0	0	484	508	0	1018	37	0	
12	0	0	0	0	472	508	0	1018	37	0	
13	0	0	0	0	448	507	0	1018	37	0	
14	0	0	0	0	447	505	0	1018	38	0	
15	0	0	0	0	453	506	0	1018	37	0	
0	0	0	0	0	447	503	0	1018	37	0	
1	0	0	0	0	440	504	0	1018	37	0	
2	0	0	0	0	418	504	0	1018	37	0	
3	0	0	0	0	431	505	0	1018	37	0	
4	0	0	0	0	461	507	0	1018	37	0	
5	0	0	0	0	496	505	0	1018	37	0	
6	0	0	0	0	523	507	0	1018	38	0	
7	0	0	0	0	543	508	0	1018	37	0	
8	0	0	0	0	569	507	0	1018	37	0	
9	0	0	0	0	580	507	0	1018	37	0	
10	0	0	0	0	588	506	0	1018	37	0	
11	0	0	0	0	600	506	0	1018	37	0	
12	0	0	0	0	601	506	0	1018	37	0	
13	0	0	0	0	591	506	0	1018	37	0	
14	0	0	0	0	553	508	0	1018	38	0	
15	0	0	0	0	515	507	0	1018	37	0	
0	0	0	0	0	512	509	0	1018	37	0	
1	0	0	0	0	517	510	0	1018	37	0	
2	0	0	0	0	527	510	0	1018	37	0	
3	0	0	0	0	526	510	0	1018	37	0	
4	0	0	0	0	508	510	0	1018	37	0	
5	0	0	0	0	500	511	0	1018	37	0	
6	0	0	0	0	476	511	0	1018	38	0	
7	0	0	0	0	430	511	0	1017	37	0	
8	0	0	0	0	421	509	0	653	37	0	
9	0	0	0	0	446	509	0	217	37	0	
10	0	0	0	0	484	509	0	0	37	0	
11	0	0	0	0	499	508	0	0	37	0	
12	0	0	0	0	495	506	0	0	37	0	
13	0	0	0	0	482	506	0	0	37	0	
14	0	0	0	0	487	507	0	0	38	0	
15	0	0	0	0	512	508	0	0	37	0	
0	0	0	0	0	519	508	0	0	37	0	
1	0	0	0	0	512	510	0	0	37	0	
2	0	0	0	0	517	510	0	0	37	0	
3	0	0	0	0	520	510	0	0	37	0	
4	0	0	0	0	521	510	0	0	37	0	
5	0	0	0	0	520	509	0	0	37	0	
6	0	0	0	0	517	508	0	0	38	0	
7	0	0	0	0	512	508	0	0	37	0	
8	0	0	0	0	502	508	0	0	37	0	
9	0	0	0	0	503	508	0	0	37	0	
10	0	0	0	0	501	507	0	0	37	0	
11	0	0	0	0	486	507	0	0	37	0	
12	0	0	0	0	482	507	0	0	37	0	
13	0	0	0	0	484	508	0	0	37	0	
14	0	0	0	0	501	508	0	0	38	0	
15	0	0	0	0	514	506	0	62	37	0	
0	0	0	0	0	520	508	0	123	37	0	
1	0	0	0	0	529	508	0	191	37	0	
2	0	0	0	0	527	509	0	15	37	0	
3	0	0	0	0	529	509	0	0	37	0	
4	0	0	0	0	529	510	0	0	37	0	
5	0	0	0	0	529	510	0	0	37	0	
6	0	0	0	0	504	510	0	0	38	0	
7	0	0	0	0	501	509	0	0	37	0	
8	0	0	0	0	511	509	0	0	37	0	
9	0	0	0	0	520	508	0	0	37	0	
10	0	0	0	0	526	506	0	0	37	0	
11	0	0	0	0	525	505	0	0	37	0	
12	0	0	0	0	526	506	0	0	37	0	
13	0	0	0	0	529	507	0	0	37	0	
14	0	0	0	0	540	508	0	0	38	0	
15	0	0	0	0	549	508	0	0	37	0	
0	0	0	0	0	551	508	0	0	37	0	
1	0	0	0	0	542	509	0	0	37	0	
2	0	0	0	0	531	509	0	0	37	0	
3	0	0	0	0	513	507	0	0	37	0	
4	0	0	0	0	499	508	0	0	37	0	
5	0	0	0	0	500	507	0	0	37	0	
6	0	0	0	0	492	507	0	0	38	0	
7	0	0	0	0	487	508	0	0	37	0	
8	0	0	0	0	484	507	0	0	37	0	
9	0	0	0	0	488	508	0	0	37	0	
10	0	0	0	0	493	508	0	0	37	0	
11	0	0	0	0	490	510	0	0	37	0	
12	0	0	0	0	490	510	0	0	37	0	
13	0	0	0	0	486	509	0	0	37	0	
14	0	0	0	0	487	508	0	0	38	0	
15	0	0	0	0	499	509	0	0	37	0	
0	0	0	0	0	507	510	0	0	37	0	
1	0	0	0	0	492	510	0	0	37	0	
2	0	0	0	0	468	508	0	79	37	0	
3	0	0	0	0	463	508	0	148	37	0	
4	0	0	0	0	483	507	0	161	37	0	
5	0	0	0	0	514	509	0	167	37	0	
6	0	0	0	0	536	510	0	154	38	0	
7	0	0	0	0	545	510	0	288	37	0	
8	0	0	0	0	545	508	0	450	37	0	
9	0	0	0	0	540	511	0	484	37	0	
10	0	0	0	0	524	512	0	564	37	0	
11	0	0	0	0	508	511	0	780	37	0	
12	0	0	0	0	508	510	0	985	37	0	
13	0	0	0	0	518	511	0	1017	37	0	
14	0	0	0	0	510	509	0	1018	37	0	
15	0	0	0	0	487	510	0	1018	37	0	
0	0	0	0	0	487	510	0	1018	37	0	
1	0	0	0	0	501	509	0	1018	37	0	
2	0	0	0	0	498	509	0	1018	37	0	
3	0	0	0	0	500	510	0	1018	37	0	
4	0	0	0	0	512	510	0	1018	37	0	
5	0	0	0	0	525	509	0	1018	37	0	
6	0	0	0	0	522	509	0	1018	38	0	
7	0	0	0	0	519	510	0	1018	37	0	
8	0	0	0	0	512	511	0	1018	37	0	
9	0	0	0	0	504	512	0	1018	37	0	
10	0	0	0	0	508	510	0	1018	37	0	
11	0	0	0	0	506	509	0	1018	37	0	
12	0	0	0	0	508	509	0	1018	37	0	
13	0	0	0	0	515	509	0	1017	37	0	
14	0	0	0	0	512	509	0	1018	37	0	
15	0	0	0	0	503	510	0	1018	37	0	
0	0	0	0	0	507	509	0	1018	37	0	
1	0	0	0	0	511	509	0	1018	37	0	
2	0	0	0	0	511	508	0	1018	37	0	
3	0	0	0	0	511	505	0	1018	37	0	
4	0	0	0	0	512	507	0	1018	37	0	
5	0	0	0	0	511	505	0	1018	37	0	
6	0	0	0	0	511	505	0	1018	37	0	
7	0	0	0	0	513	507	0	1018	37	0	
8	0	0	0	0	509	507	0	1018	37	0	
9	0	0	0	0	509	508	0	1018	37	0	
10	0	0	0	0	509	508	0	1018	37	0	
11	0	0	0	0	511	507	0	1018	37	0	
12	0	0	0	0	513	508	0	1018	37	0	
13	0	0	0	0	511	507	0	1018	37	0	
14	0	0	0	0	512	508	0	1018	37	0	
15	0	0	0	0	511	507	0	1018	37	0	
0	0	0	0	0	505	507	0	1018	37	0	
1	0	0	0	0	506	507	0	1018	37	0	
2	0	0	0	0	507	507	0	1018	37	0	
3	0	0	0	0	508	507	0	1018	37	0	
4	0	0	0	0	507	506	0	1018	37	0	
5	0	0	0	0	507	506	0	1018	37	0	
6	0	0	0	0	505	508	0	1018	37	0	
7	0	0	0	0	494	508	0	1018	37	0	
8	0	0	0	0	499	508	0	1018	37	0	
9	0	0	0	0	484	508	0	1018	37	0	
10	0	0	0	0	453	508	0	1018	37	0	
11	0	0	0	0	458	508	0	1018	37	0	
12	0	0	0	0	465	507	0	1018	37	0	
13	0	0	0	0	445	508	0	1018	37	0	
14	0	0	0	0	397	508	0	1018	37	0	
15	0	0	0	0	418	507	0	1018	37	0	
0	0	0	0	0	472	507	0	1018	37	0	
1	0	0	0	0	517	508	0	1017	37	0	
2	0	0	0	0	552	509	0	531	37	0	
3	0	0	0	0	582	508	0	305	37	0	
4	0	0	0	0	604	508	0	180	37	0	
5	0	0	0	0	631	507	0	141	37	0	
6	0	0	0	0	646	510	0	0	37	0	
7	0	0	0	0	644	509	0	0	37	0	
8	0	0	0	0	637	507	0	0	37	0	
9	0	0	0	0	623	508	0	0	37	0	
10	0	0	0	0	595	508	0	0	37	0	
11	0	0	0	0	567	509	0	0	37	0	
12	0	0	0	0	540	510	0	0	37	0	
13	0	0	0	0	523	509	0	0	37	0	
14	0	0	0	0	493	510	0	0	37	0	
15	0	0	0	0	460	513	0	0	37	0	
0	0	0	0	0	437	512	0	0	37	0	
1	0	0	0	0	430	511	0	0	37	0	
2	0	0	0	0	425	510	0	0	37	0	
3	0	0	0	0	421	510	0	0	37	0	
4	0	0	0	0	416	509	0	0	37	0	
5	0	0	0	0	432	509	0	0	37	0	
6	0	0	0	0	432	508	0	0	37	0	
7	0	0	0	0	430	509	0	0	37	0	
8	0	0	0	0	446	506	0	0	37	0	
9	0	0	0	0	471	507	0	0	37	0	
10	0	0	0	0	497	506	0	0	37	0	
11	0	0	0	0	500	507	0	0	37	0	
12	0	0	0	0	512	506	0	0	37	0	
13	0	0	0	0	520	508	0	0	37	0	
14	0	0	0	0	542	509	0	0	37	0	
15	0	0	0	0	556	508	0	0	37	0	
0	0	0	0	0	576	509	0	0	37	0	
1	0	0	0	0	579	508	0	0	37	0	
2	0	0	0	0	565	506	0	0	37	0	
3	0	0	0	0	559	505	0	0	37	0	
4	0	0	0	0	554	507	0	0	37	0	
5	0	0	0	0	540	509	0	0	37	0	
6	0	0	0	0	520	509	0	0	37	0	
7	0	0	0	0	523	508	0	0	37	0	
8	0	0	0	0	536	508	0	0	37	0	
9	0	0	0	0	538	508	0	0	37	0	
10	0	0	0	0	527	509	0	470	37	0	
11	0	0	0	0	518	509	0	702	37	0	
12	0	0	0	0	511	507	0	868	37	0	
13	0	0	0	0	495	507	0	988	37	0	
14	0	0	0	0	456	507	0	1018	37	0	
15	0	0	0	0	425	507	0	1017	37	0	
0	0	0	0	0	428	508	0	1018	37	0	
1	0	0	0	0	419	507	0	1018	37	0	
2	0	0	0	0	432	507	0	1018	37	0	
3	0	0	0	0	466	507	0	1018	37	0	
4	0	0	0	0	495	507	0	1018	37	0	
5	0	0	0	0	511	507	0	1018	37	0	
6	0	0	0	0	521	507	0	1018	37	0	
7	0	0	0	0	536	506	0	1018	37	0	
8	0	0	0	0	554	505	0	1018	37	0	
9	0	0	0	0	564	505	0	1018	37	0	
10	0	0	0	0	566	507	0	1018	37	0	
11	0	0	0	0	564	508	0	1018	37	0	
12	0	0	0	0	560	507	0	1018	37	0	
13	0	0	0	0	544	507	0	1018	37	0	
14	0	0	0	0	536	508	0	523	38	0	
15	0	0	0	0	534	507	0	132	37	0	
0	0	0	0	0	529	506	0	0	37	0	
1	0	0	0	0	518	507	0	0	37	0	
2	0	0	0	0	504	508	0	0	37	0	
3	0	0	0	0	501	506	0	0	37	0	
4	0	0	0	0	496	507	0	0	37	0	
5	0	0	0	0	472	507	0	0	37	0	
6	0	0	0	0	456	507	0	0	37	0	
7	0	0	0	0	462	507	0	0	37	0	
8	0	0	0	0	469	508	0	0	37	0	
9	0	0	0	0	469	507	0	0	37	0	
10	0	0	0	0	470	505	0	0	37	0	
11	0	0	0	0	491	506	0	0	37	0	
12	0	0	0	0	510	506	0	0	37	0	
13	0	0	0	0	520	507	0	0	37	0	
14	0	0	0	0	521	507	0	0	38	0	
15	0	0	0	0	522	508	0	0	37	0	
0	0	0	0	0	528	507	0	0	37	0	
1	0	0	0	0	532	506	0	0	37	0	
2	0	0	0	0	531	506	0	0	37	0	
3	0	0	0	0	526	505	0	0	37	0	
4	0	0	0	0	523	505	0	0	37	0	
5	0	0	0	0	524	505	0	0	37	0	
6	0	0	0	0	519	505	0	0	38	0	
7	0	0	0	0	512	507	0	0	37	0	
8	0	0	0	0	508	506	0	0	37	0	
9	0	0	0	0	505	505	0	0	37	0	
10	0	0	0	0	504	505	0	0	37	0	
11	0	0	0	0	502	506	0	0	37	0	
12	0	0	0	0	502	506	0	0	37	0	
13	0	0	0	0	505	506	0	0	37	0	
14	0	0	0	0	506	507	0	0	38	0	
15	0	0	0	0	509	508	0	0	37	0	
0	0	0	0	0	511	507	0	0	37	0	
1	0	0	0	0	512	506	0	0	37	0	
2	0	0	0	0	506	506	0	0	37	0	
3	0	0	0	0	506	508	0	0	37	0	
4	0	0	0	0	507	508	0	0	37	0	
5	0	0	0	0	504	510	0	0	37	0	
6	0	0	0	0	503	510	0	0	38	0	
7	0	0	0	0	504	508	0	0	37	0	
8	0	0	0	0	507	508	0	0	37	0	
9	0	0	0	0	516	507	0	0	37	0	
10	0	0	0	0	521	508	0	0	37	0	
11	0	0	0	0	520	507	0	0	37	0	
12	0	0	0	0	505	507	0	0	37	0	
13	0	0	0	0	496	506	0	0	37	0	
14	0	0	0	0	493	506	0	0	38	0	
15	0	0	0	0	489	506	0	0	37	0	
0	0	0	0	0	487	505	0	0	37	0	
1	0	0	0	0	491	505	0	0	37	0	
2	0	0	0	0	500	505	0	0	37	0	
3	0	0	0	0	513	508	0	0	37	0	
4	0	0	0	0	513	508	0	0	37	0	
5	0	0	0	0	509	508	0	0	37	0	
6	0	0	0	0	512	508	0	0	38	0	
7	0	0	0	0	515	505	0	0	37	0	
8	0	0	0	0	516	506	0	0	37	0	
9	0	0	0	0	516	506	0	0	37	0	
10	0	0	0	0	532	505	0	0	37	0	
11	0	0	0	0	541	504	0	0	37	0	
12	0	0	0	0	535	505	0	0	37	0	
13	0	0	0	0	504	505	0	0	37	0	
14	0	0	0	0	475	505	0	0	38	0	
15	0	0	0	0	477	506	0	0	37	0	
0	0	0	0	0	486	507	0	0	37	0	
1	0	0	0	0	503	507	0	0	37	0	
2	0	0	0	0	511	508	0	0	37	0	
3	0	0	0	0	488	508	0	0	37	0	
4	0	0	0	0	458	507	0	0	37	0	
5	0	0	0	0	429	509	0	0	37	0	
6	0	0	0	0	455	509	0	0	38	0	
7	0	0	0	0	481	505	0	0	37	0	
8	0	0	0	0	524	507	0	0	37	0	
9	0	0	0	0	542	509	0	0	37	0	
10	0	0	0	0	561	508	0	0	37	0	
11	0	0	0	0	574	507	0	0	37	0	
12	0	0	0	0	586	507	0	0	37	0	
13	0	0	0	0	586	508	0	0	37	0	
14	0	0	0	0	592	507	0	0	38	0	
15	0	0	0	0	581	506	0	0	37	0	
0	0	0	0	0	551	505	0	0	37	0	
1	0	0	0	0	527	505	0	0	37	0	
2	0	0	0	0	528	506	0	0	37	0	
3	0	0	0	0	524	507	0	0	37	0	
4	0	0	0	0	525	505	0	0	37	0	
5	0	0	0	0	511	505	0	0	37	0	
6	0	0	0	0	494	507	0	0	38	0	
7	0	0	0	0	474	508	0	0	37	0	
8	0	0	0	0	457	509	0	0	37	0	
9	0	0	0	0	453	508	0	0	37	0	
10	0	0	0	0	468	507	0	141	37	0	
11	0	0	0	0	472	507	0	245	37	0	
12	0	0	0	0	474	508	0	211	37	0	
13	0	0	0	0	479	508	0	94	37	0	
14	0	0	0	0	484	505	0	0	38	0	
15	0	0	0	0	486	504	0	0	37	0	
0	0	0	0	0	487	504	0	0	37	0	
1	0	0	0	0	492	504	0	0	37	0	
2	0	0	0	0	500	504	0	0	37	0	
3	0	0	0	0	510	504	0	0	37	0	
4	0	0	0	0	509	504	0	0	37	0	
5	0	0	0	0	509	505	0	0	37	0	
6	0	0	0	0	508	506	0	0	38	0	
7	0	0	0	0	512	509	0	0	37	0	
8	0	0	0	0	522	510	0	0	37	0	
9	0	0	0	0	530	511	0	0	37	0	
10	0	0	0	0	532	510	0	0	37	0	
11	0	0	0	0	526	508	0	0	37	0	
12	0	0	0	0	520	510	0	0	37	0	
13	0	0	0	0	515	509	0	211	37	0	
14	0	0	0	0	518	509	0	465	38	0	
15	0	0	0	0	523	510	0	647	37	0	
0	0	0	0	0	519	510	0	760	37	0	
1	0	0	0	0	507	510	0	975	37	0	
2	0	0	0	0	463	510	0	1018	37	0	
3	0	0	0	0	424	509	0	1018	37	0	
4	0	0	0	0	430	510	0	1018	37	0	
5	0	0	0	0	449	510	0	1018	37	0	
6	0	0	0	0	472	510	0	1018	38	0	
7	0	0	0	0	495	510	0	1018	37	0	
8	0	0	0	0	536	507	0	1018	37	0	
9	0	0	0	0	563	507	0	1018	37	0	
10	0	0	0	0	575	508	0	1018	37	0	
11	0	0	0	0	579	508	0	1018	37	0	
12	0	0	0	0	577	508	0	1018	37	0	
13	0	0	0	0	575	510	0	1018	37	0	
14	0	0	0	0	577	509	0	1018	38	0	
15	0	0	0	0	571	508	0	1018	37	0	
0	0	0	0	0	564	507	0	1018	37	0	
1	0	0	0	0	545	507	0	1018	37	0	
2	0	0	0	0	519	508	0	1018	37	0	
3	0	0	0	0	499	507	0	1018	37	0	
4	0	0	0	0	486	509	0	1018	37	0	
5	0	0	0	0	472	510	0	1018	37	0	
6	0	0	0	0	472	508	0	1018	38	0	
7	0	0	0	0	488	509	0	1018	37	0	
8	0	0	0	0	499	508	0	1018	37	0	
9	0	0	0	0	515	507	0	1018	37	0	
10	0	0	0	0	525	507	0	1018	37	0	
11	0	0	0	0	531	508	0	1018	37	0	
12	0	0	0	0	527	509	0	1018	37	0	
13	0	0	0	0	456	508	0	1018	37	0	
14	0	0	0	0	390	507	0	1018	38	0	
15	0	0	0	0	371	506	0	1018	37	0	
0	0	0	0	0	403	505	0	1018	37	0	
1	0	0	0	0	440	507	0	1018	37	0	
2	0	0	0	0	474	506	0	1018	37	0	
3	0	0	0	0	501	506	0	1018	37	0	
4	0	0	0	0	508	506	0	1018	37	0	
5	0	0	0	0	509	507	0	1018	37	0	
6	0	0	0	0	511	506	0	1018	37	0	
7	0	0	0	0	527	506	0	1018	37	0	
8	0	0	0	0	550	508	0	1018	37	0	
9	0	0	0	0	566	507	0	1018	37	0	
10	0	0	0	0	576	508	0	1018	37	0	
11	0	0	0	0	567	507	0	1018	37	0	
12	0	0	0	0	567	507	0	1018	37	0	
13	0	0	0	0	575	507	0	1018	37	0	
14	0	0	0	0	574	507	0	1018	38	0	
15	0	0	0	0	555	507	0	1018	37	0	
0	0	0	0	0	488	507	0	1018	37	0	
1	0	0	0	0	412	506	0	1017	37	0	
2	0	0	0	0	300	508	0	1018	37	0	
3	0	0	0	0	236	507	0	1018	37	0	
4	0	0	0	0	257	508	0	1018	37	0	
5	0	0	0	0	314	508	0	1018	37	0	
6	0	0	0	0	419	508	0	1018	38	0	
7	0	0	0	0	528	508	0	1018	37	0	
8	0	0	0	0	620	510	0	1018	37	0	
9	0	0	0	0	683	510	0	1018	37	0	
10	0	0	0	0	723	511	0	1018	37	0	
11	0	0	0	0	746	510	0	1018	37	0	
12	0	0	0	0	750	510	0	1018	37	0	
13	0	0	0	0	733	508	0	1018	37	0	
14	0	0	0	0	712	508	0	1018	37	0	
15	0	0	0	0	674	508	0	1018	37	0	
0	0	0	0	0	631	508	0	1018	37	0	
1	0	0	0	0	586	508	0	1018	37	0	
2	0	0	0	0	545	507	0	1018	37	0	
3	0	0	0	0	522	506	0	1018	37	0	
4	0	0	0	0	506	506	0	1018	37	0	
5	0	0	0	0	495	507	0	1018	37	0	
6	0	0	0	0	467	508	0	1018	38	0	
7	0	0	0	0	446	508	0	1018	37	0	
8	0	0	0	0	428	509	0	1018	37	0	
9	0	0	0	0	416	510	0	1018	37	0	
10	0	0	0	0	419	509	0	1018	37	0	
11	0	0	0	0	422	509	0	1018	37	0	
12	0	0	0	0	419	509	0	1018	37	0	
13	0	0	0	0	428	510	0	1018	37	0	
14	0	0	0	0	439	509	0	1018	38	0	
15	0	0	0	0	450	509	0	1018	37	0	
0	0	0	0	0	455	508	0	1018	37	0	
1	0	0	0	0	475	508	0	1018	37	0	
2	0	0	0	0	498	507	0	1018	37	0	
3	0	0	0	0	512	508	0	1018	37	0	
4	0	0	0	0	521	510	0	1018	37	0	
5	0	0	0	0	518	510	0	1018	37	0	
6	0	0	0	0	500	510	0	1018	38	0	
7	0	0	0	0	469	510	0	1018	37	0	
8	0	0	0	0	471	509	0	1018	37	0	
9	0	0	0	0	504	509	0	1018	37	0	
10	0	0	0	0	521	509	0	1018	37	0	
11	0	0	0	0	515	509	0	1018	37	0	
12	0	0	0	0	500	508	0	1018	37	0	
13	0	0	0	0	494	509	0	1018	37	0	
14	0	0	0	0	464	509	0	1018	38	0	
15	0	0	0	0	473	510	0	1018	37	0	
0	0	0	0	0	492	510	0	1018	37	0	
1	0	0	0	0	493	508	0	1018	37	0	
2	0	0	0	0	494	507	0	1018	37	0	
3	0	0	0	0	513	507	0	1018	37	0	
4	0	0	0	0	523	506	0	831	37	0	
5	0	0	0	0	518	507	0	138	37	0	
6	0	0	0	0	515	507	0	0	38	0	
7	0	0	0	0	505	507	0	0	37	0	
8	0	0	0	0	514	508	0	0	37	0	
9	0	0	0	0	525	508	0	0	37	0	
10	0	0	0	0	525	509	0	0	37	0	
11	0	0	0	0	524	509	0	0	37	0	
12	0	0	0	0	512	509	0	0	37	0	
13	0	0	0	0	516	508	0	0	37	0	
14	0	0	0	0	523	509	0	0	38	0	
15	0	0	0	0	533	508	0	0	37	0	
0	0	0	0	0	535	508	0	0	37	0	
1	0	0	0	0	523	510	0	0	37	0	
2	0	0	0	0	519	510	0	0	37	0	
3	0	0	0	0	516	510	0	0	37	0	
4	0	0	0	0	527	511	0	0	37	0	
5	0	0	0	0	516	511	0	0	37	0	
6	0	0	0	0	499	510	0	0	38	0	
7	0	0	0	0	481	508	0	0	37	0	
8	0	0	0	0	459	508	0	0	37	0	
9	0	0	0	0	449	510	0	0	37	0	
10	0	0	0	0	475	510	0	0	37	0	
11	0	0	0	0	514	510	0	0	37	0	
12	0	0	0	0	521	508	0	0	37	0	
13	0	0	0	0	510	508	0	0	37	0	
14	0	0	0	0	505	508	0	0	38	0	
15	0	0	0	0	496	507	0	0	37	0	
0	0	0	0	0	487	505	0	0	37	0	
1	0	0	0	0	483	506	0	0	37	0	
2	0	0	0	0	510	507	0	0	37	0	
3	0	0	0	0	546	506	0	0	37	0	
4	0	0	0	0	572	506	0	0	37	0	
5	0	0	0	0	578	506	0	0	37	0	
6	0	0	0	0	589	507	0	0	38	0	
7	0	0	0	0	598	507	0	0	37	0	
8	0	0	0	0	588	505	0	0	37	0	
9	0	0	0	0	575	505	0	0	37	0	
10	0	0	0	0	562	503	0	0	37	0	
11	0	0	0	0	549	503	0	0	37	0	
12	0	0	0	0	534	506	0	0	37	0	
13	0	0	0	0	515	508	0	0	37	0	
14	0	0	0	0	504	507	0	0	37	0	
15	0	0	0	0	495	505	0	0	37	0	
0	0	0	0	0	492	506	0	0	37	0	
1	0	0	0	0	489	506	0	0	37	0	
2	0	0	0	0	488	508	0	0	37	0	
3	0	0	0	0	484	507	0	0	37	0	
4	0	0	0	0	485	507	0	0	37	0	
5	0	0	0	0	483	507	0	0	37	0	
6	0	0	0	0	474	508	0	0	38	0	
7	0	0	0	0	469	506	0	0	37	0	
8	0	0	0	0	468	505	0	0	37	0	
9	0	0	0	0	478	507	0	0	37	0	
10	0	0	0	0	476	506	0	0	37	0	
11	0	0	0	0	464	507	0	0	37	0	
12	0	0	0	0	467	508	0	0	37	0	
13	0	0	0	0	471	508	0	0	37	0	
14	0	0	0	0	476	507	0	0	38	0	
15	0	0	0	0	478	508	0	0	37	0	
0	0	0	0	0	464	508	0	0	37	0	
1	0	0	0	0	466	510	0	0	37	0	
2	0	0	0	0	467	508	0	0	37	0	
3	0	0	0	0	468	509	0	0	37	0	
4	0	0	0	0	503	508	0	0	37	0	
5	0	0	0	0	532	506	0	0	37	0	
6	0	0	0	0	559	506	0	0	38	0	
7	0	0	0	0	563	505	0	0	37	0	
8	0	0	0	0	566	504	0	0	37	0	
9	0	0	0	0	563	504	0	0	37	0	
10	0	0	0	0	555	504	0	0	37	0	
11	0	0	0	0	563	504	0	0	37	0	
12	0	0	0	0	559	504	0	0	37	0	
13	0	0	0	0	557	503	0	0	37	0	
14	0	0	0	0	560	505	0	0	38	0	
15	0	0	0	0	552	507	0	0	37	0	
0	0	0	0	0	535	507	0	0	37	0	
1	0	0	0	0	512	506	0	0	37	0	
2	0	0	0	0	480	504	0	0	37	0	
3	0	0	0	0	464	508	0	0	37	0	
4	0	0	0	0	464	509	0	0	37	0	
5	0	0	0	0	462	507	0	0	37	0	
6	0	0	0	0	457	505	0	0	37	0	
7	0	0	0	0	464	505	0	0	37	0	
8	0	0	0	0	467	505	0	0	37	0	
9	0	0	0	0	459	506	0	0	37	0	
10	0	0	0	0	436	507	0	0	37	0	
11	0	0	0	0	406	507	0	0	37	0	
12	0	0	0	0	392	506	0	0	37	0	
13	0	0	0	0	422	507	0	0	37	0	
14	0	0	0	0	461	507	0	0	37	0	
15	0	0	0	0	513	507	0	0	37	0	
0	0	0	0	0	572	509	0	0	37	0	
1	0	0	0	0	600	511	0	0	37	0	
2	0	0	0	0	621	510	0	0	37	0	
3	0	0	0	0	634	510	0	0	37	0	
4	0	0	0	0	649	510	0	0	37	0	
5	0	0	0	0	641	507	0	0	37	0	
6	0	0	0	0	621	508	0	0	37	0	
7	0	0	0	0	602	507	0	0	37	0	
8	0	0	0	0	595	507	0	0	37	0	
9	0	0	0	0	565	506	0	0	37	0	
10	0	0	0	0	531	504	0	0	37	0	
11	0	0	0	0	486	505	0	0	37	0	
12	0	0	0	0	482	506	0	0	37	0	
13	0	0	0	0	480	506	0	0	37	0	
14	0	0	0	0	468	508	0	0	37	0	
15	0	0	0	0	463	507	0	0	37	0	
0	0	0	0	0	457	508	0	0	37	0	
1	0	0	0	0	433	509	0	0	37	0	
2	0	0	0	0	391	509	0	0	37	0	
3	0	0	0	0	377	509	0	0	37	0	
4	0	0	0	0	395	508	0	0	37	0	
5	0	0	0	0	422	509	0	0	37	0	
6	0	0	0	0	462	507	0	0	38	0	
7	0	0	0	0	495	507	0	0	37	0	
8	0	0	0	0	529	506	0	0	37	0	
9	0	0	0	0	550	508	0	0	37	0	
10	0	0	0	0	563	509	0	0	37	0	
11	0	0	0	0	558	509	0	0	37	0	
12	0	0	0	0	566	510	0	0	37	0	
13	0	0	0	0	575	511	0	0	37	0	
14	0	0	0	0	570	511	0	0	37	0	
15	0	0	0	0	562	510	0	0	37	0	
0	0	0	0	0	556	510	0	0	37	0	
1	0	0	0	0	541	510	0	0	37	0	
2	0	0	0	0	519	509	0	192	37	0	
3	0	0	0	0	510	508	0	654	37	0	
4	0	0	0	0	505	508	0	1017	37	0	
5	0	0	0	0	493	507	0	1018	37	0	
6	0	0	0	0	482	508	0	1018	37	0	
7	0	0	0	0	483	509	0	1018	37	0	
8	0	0	0	0	489	508	0	1018	37	0	
9	0	0	0	0	491	507	0	1018	37	0	
10	0	0	0	0	492	508	0	1018	37	0	
11	0	0	0	0	495	510	0	1018	37	0	
12	0	0	0	0	495	510	0	1018	37	0	
13	0	0	0	0	496	508	0	1018	37	0	
14	0	0	0	0	494	508	0	1018	38	0	
15	0	0	0	0	493	507	0	1018	37	0	
0	0	0	0	0	487	506	0	1018	37	0	
1	0	0	0	0	483	507	0	1018	37	0	
2	0	0	0	0	483	506	0	1018	37	0	
3	0	0	0	0	478	505	0	1018	37	0	
4	0	0	0	0	479	505	0	1018	37	0	
5	0	0	0	0	483	506	0	1018	37	0	
6	0	0	0	0	499	506	0	1018	38	0	
7	0	0	0	0	509	507	0	1018	37	0	
8	0	0	0	0	520	508	0	1018	37	0	
9	0	0	0	0	520	510	0	1018	37	0	
10	0	0	0	0	516	512	0	1018	37	0	
11	0	0	0	0	520	512	0	1018	37	0	
12	0	0	0	0	522	511	0	1018	37	0	
13	0	0	0	0	524	511	0	1018	37	0	
14	0	0	0	0	521	511	0	1018	38	0	
15	0	0	0	0	494	510	0	1018	37	0	
0	0	0	0	0	493	510	0	1018	37	0	
1	0	0	0	0	516	510	0	1018	37	0	
2	0	0	0	0	536	510	0	1018	37	0	
3	0	0	0	0	552	508	0	1018	37	0	
4	0	0	0	0	532	507	0	1018	37	0	
5	0	0	0	0	510	508	0	1018	37	0	
6	0	0	0	0	516	508	0	1018	38	0	
7	0	0	0	0	539	509	0	1018	37	0	
8	0	0	0	0	561	507	0	1018	37	0	
9	0	0	0	0	564	508	0	1018	37	0	
10	0	0	0	0	551	508	0	1018	37	0	
11	0	0	0	0	528	507	0	1018	37	0	
12	0	0	0	0	508	508	0	1018	37	0	
13	0	0	0	0	502	507	0	1018	37	0	
14	0	0	0	0	514	507	0	1018	38	0	
15	0	0	0	0	518	508	0	1018	37	0	
0	0	0	0	0	490	507	0	1018	37	0	
1	0	0	0	0	476	507	0	1018	37	0	
2	0	0	0	0	484	508	0	1018	37	0	
3	0	0	0	0	480	507	0	1018	37	0	
4	0	0	0	0	484	508	0	1018	37	0	
5	0	0	0	0	485	508	0	1018	37	0	
6	0	0	0	0	488	507	0	1018	38	0	
7	0	0	0	0	500	507	0	1018	37	0	
8	0	0	0	0	499	507	0	1018	37	0	
9	0	0	0	0	498	508	0	1018	37	0	
10	0	0	0	0	503	508	0	1018	37	0	
11	0	0	0	0	515	508	0	1018	37	0	
12	0	0	0	0	515	508	0	1018	37	0	
13	0	0	0	0	516	509	0	1018	37	0	
14	0	0	0	0	514	508	0	1018	38	0	
15	0	0	0	0	508	508	0	1018	37	0	
0	0	0	0	0	507	508	0	1018	37	0	
1	0	0	0	0	503	508	0	1018	37	0	
2	0	0	0	0	481	507	0	1018	37	0	
3	0	0	0	0	470	509	0	1018	37	0	
4	0	0	0	0	487	510	0	1018	37	0	
5	0	0	0	0	509	508	0	1018	37	0	
6	0	0	0	0	526	508	0	1018	38	0	
7	0	0	0	0	515	508	0	1018	37	0	
8	0	0	0	0	526	509	0	1018	37	0	
9	0	0	0	0	545	510	0	1018	37	0	
10	0	0	0	0	555	508	0	1018	37	0	
11	0	0	0	0	552	507	0	1018	37	0	
12	0	0	0	0	542	508	0	1018	37	0	
13	0	0	0	0	534	508	0	1018	37	0	
14	0	0	0	0	515	507	0	1018	38	0	
15	0	0	0	0	494	507	0	1018	37	0	
0	0	0	0	0	472	506	0	1018	37	0	
1	0	0	0	0	472	507	0	1018	37	0	
2	0	0	0	0	481	506	0	1018	37	0	
3	0	0	0	0	486	505	0	1018	37	0	
4	0	0	0	0	468	505	0	1018	37	0	
5	0	0	0	0	444	505	0	1018	37	0	
6	0	0	0	0	404	506	0	1018	38	0	
7	0	0	0	0	386	506	0	1018	37	0	
8	0	0	0	0	424	507	0	1018	37	0	
9	0	0	0	0	500	507	0	1018	37	0	
10	0	0	0	0	566	506	0	592	37	0	
11	0	0	0	0	606	508	0	140	37	0	
12	0	0	0	0	632	508	0	0	37	0	
13	0	0	0	0	631	510	0	0	37	0	
14	0	0	0	0	602	508	0	0	38	0	
15	0	0	0	0	590	511	0	0	37	0	
0	0	0	0	0	572	510	0	0	37	0	
1	0	0	0	0	567	510	0	0	37	0	
2	0	0	0	0	549	509	0	0	37	0	
3	0	0	0	0	529	509	0	0	37	0	
4	0	0	0	0	514	509	0	0	37	0	
5	0	0	0	0	509	509	0	0	37	0	
6	0	0	0	0	499	507	0	0	38	0	
7	0	0	0	0	496	506	0	0	37	0	
8	0	0	0	0	487	507	0	0	37	0	
9	0	0	0	0	484	507	0	0	37	0	
10	0	0	0	0	465	508	0	0	37	0	
11	0	0	0	0	460	508	0	0	37	0	
12	0	0	0	0	461	509	0	0	37	0	
13	0	0	0	0	469	509	0	0	37	0	
14	0	0	0	0	483	509	0	0	38	0	
15	0	0	0	0	495	509	0	0	37	0	
0	0	0	0	0	503	508	0	0	37	0	
1	0	0	0	0	504	509	0	0	37	0	
2	0	0	0	0	513	506	0	0	37	0	
3	0	0	0	0	506	507	0	292	37	0	
4	0	0	0	0	491	507	0	658	37	0	
5	0	0	0	0	492	508	0	902	37	0	
6	0	0	0	0	499	508	0	1018	38	0	
7	0	0	0	0	502	507	0	1017	37	0	
8	0	0	0	0	490	505	0	1018	37	0	
9	0	0	0	0	476	507	0	1018	37	0	
10	0	0	0	0	480	508	0	1018	37	0	
11	0	0	0	0	489	509	0	1018	37	0	
12	0	0	0	0	496	510	0	1018	37	0	
13	0	0	0	0	510	509	0	1018	37	0	
14	0	0	0	0	520	508	0	1018	38	0	
15	0	0	0	0	526	510	0	1018	37	0	
0	0	0	0	0	531	510	0	1018	37	0	
1	0	0	0	0	532	510	0	1018	37	0	
2	0	0	0	0	533	510	0	1018	37	0	
3	0	0	0	0	518	509	0	1018	37	0	
4	0	0	0	0	519	508	0	1018	37	0	
5	0	0	0	0	518	508	0	1018	37	0	
6	0	0	0	0	511	506	0	1018	38	0	
7	0	0	0	0	492	505	0	1018	37	0	
8	0	0	0	0	461	506	0	1018	37	0	
9	0	0	0	0	450	506	0	1018	37	0	
10	0	0	0	0	468	506	0	1018	37	0	
11	0	0	0	0	488	505	0	1018	37	0	
12	0	0	0	0	509	506	0	1018	37	0	
13	0	0	0	0	521	507	0	1018	37	0	
14	0	0	0	0	526	506	0	1018	38	0	
15	0	0	0	0	535	507	0	1018	37	0	
0	0	0	0	0	551	506	0	1018	37	0	
1	0	0	0	0	569	507	0	1018	37	0	
2	0	0	0	0	572	508	0	1018	37	0	
3	0	0	0	0	578	507	0	1018	37	0	
4	0	0	0	0	585	507	0	1018	37	0	
5	0	0	0	0	578	507	0	1018	37	0	
6	0	0	0	0	553	507	0	1018	37	0	
7	0	0	0	0	532	508	0	1018	37	0	
8	0	0	0	0	518	509	0	1018	37	0	
9	0	0	0	0	503	510	0	1018	37	0	
10	0	0	0	0	485	508	0	1018	37	0	
11	0	0	0	0	467	507	0	1018	37	0	
12	0	0	0	0	448	508	0	1018	37	0	
13	0	0	0	0	436	509	0	1018	37	0	
14	0	0	0	0	434	508	0	1018	38	0	
15	0	0	0	0	455	507	0	1018	37	0	
0	0	0	0	0	466	507	0	1018	37	0	
1	0	0	0	0	472	509	0	1018	37	0	
2	0	0	0	0	467	508	0	1018	37	0	
3	0	0	0	0	475	508	0	1018	37	0	
4	0	0	0	0	504	507	0	1018	37	0	
5	0	0	0	0	538	507	0	1018	37	0	
6	0	0	0	0	572	508	0	1018	37	0	
7	0	0	0	0	585	507	0	1018	37	0	
8	0	0	0	0	579	504	0	1018	37	0	
9	0	0	0	0	571	505	0	1018	37	0	
10	0	0	0	0	557	507	0	1018	37	0	
11	0	0	0	0	533	509	0	1018	37	0	
12	0	0	0	0	523	510	0	1018	37	0	
13	0	0	0	0	509	510	0	1018	37	0	
14	0	0	0	0	497	509	0	1018	37	0	
15	0	0	0	0	488	508	0	1018	37	0	
0	0	0	0	0	492	507	0	1018	37	0	
1	0	0	0	0	492	507	0	698	37	0	
2	0	0	0	0	481	507	0	546	37	0	
3	0	0	0	0	478	506	0	374	37	0	
4	0	0	0	0	478	505	0	235	37	0	
5	0	0	0	0	482	507	0	0	37	0	
6	0	0	0	0	481	507	0	0	37	0	
7	0	0	0	0	466	506	0	0	37	0	
8	0	0	0	0	470	505	0	0	37	0	
9	0	0	0	0	485	504	0	0	37	0	
10	0	0	0	0	492	505	0	0	37	0	
11	0	0	0	0	506	507	0	181	37	0	
12	0	0	0	0	531	508	0	368	37	0	
13	0	0	0	0	547	507	0	536	37	0	
14	0	0	0	0	548	507	0	663	37	0	
15	0	0	0	0	532	507	0	771	37	0	
0	0	0	0	0	519	508	0	883	37	0	
1	0	0	0	0	491	508	0	823	37	0	
2	0	0	0	0	476	508	0	596	37	0	
3	0	0	0	0	463	508	0	316	37	0	
4	0	0	0	0	473	509	0	68	37	0	
5	0	0	0	0	484	510	0	0	37	0	
6	0	0	0	0	507	509	0	0	37	0	
7	0	0	0	0	522	508	0	0	37	0	
8	0	0	0	0	534	508	0	0	37	0	
9	0	0	0	0	543	509	0	0	37	0	
10	0	0	0	0	556	509	0	0	37	0	
11	0	0	0	0	552	510	0	0	37	0	
12	0	0	0	0	554	511	0	0	37	0	
13	0	0	0	0	552	510	0	0	37	0	
14	0	0	0	0	551	509	0	0	37	0	
15	0	0	0	0	539	508	0	0	37	0	
0	0	0	0	0	527	508	0	0	37	0	
1	0	0	0	0	517	508	0	0	37	0	
2	0	0	0	0	513	507	0	0	37	0	
3	0	0	0	0	504	508	0	0	37	0	
4	0	0	0	0	487	509	0	0	37	0	
5	0	0	0	0	466	509	0	0	37	0	
6	0	0	0	0	449	509	0	0	37	0	
7	0	0	0	0	441	509	0	0	37	0	
8	0	0	0	0	445	507	0	0	37	0	
9	0	0	0	0	464	508	0	0	37	0	
10	0	0	0	0	486	507	0	0	37	0	
11	0	0	0	0	515	507	0	0	37	0	
12	0	0	0	0	536	508	0	0	37	0	
13	0	0	0	0	552	508	0	0	37	0	
14	0	0	0	0	569	506	0	0	37	0	
15	0	0	0	0	565	507	0	0	37	0	
0	0	0	0	0	553	506	0	0	37	0	
1	0	0	0	0	546	507	0	0	37	0	
2	0	0	0	0	518	505	0	0	37	0	
3	0	0	0	0	481	504	0	0	37	0	
4	0	0	0	0	463	505	0	0	37	0	
5	0	0	0	0	465	505	0	0	37	0	
6	0	0	0	0	495	506	0	0	37	0	
7	0	0	0	0	505	506	0	0	37	0	
8	0	0	0	0	501	507	0	0	37	0	
9	0	0	0	0	504	509	0	0	37	0	
10	0	0	0	0	495	509	0	0	37	0	
11	0	0	0	0	473	510	0	0	37	0	
12	0	0	0	0	473	510	0	0	37	0	
13	0	0	0	0	486	508	0	0	37	0	
14	0	0	0	0	510	508	0	0	37	0	
15	0	0	0	0	532	508	0	293	37	0	
0	0	0	0	0	557	509	0	590	37	0	
1	0	0	0	0	565	507	0	886	37	0	
2	0	0	0	0	571	507	0	977	37	0	
3	0	0	0	0	572	507	0	1018	37	0	
4	0	0	0	0	562	508	0	1018	37	0	
5	0	0	0	0	536	509	0	1018	37	0	
6	0	0	0	0	535	510	0	1017	37	0	
7	0	0	0	0	545	510	0	1017	37	0	
8	0	0	0	0	536	510	0	969	37	0	
9	0	0	0	0	508	510	0	1018	37	0	
10	0	0	0	0	473	508	0	1018	37	0	
11	0	0	0	0	441	507	0	1018	37	0	
12	0	0	0	0	419	508	0	1017	37	0	
13	0	0	0	0	428	507	0	1018	37	0	
14	0	0	0	0	448	507	0	1018	37	0	
15	0	0	0	0	446	507	0	881	37	0	
0	0	0	0	0	457	507	0	1010	37	0	
1	0	0	0	0	463	507	0	1017	37	0	
2	0	0	0	0	479	505	0	1018	37	0	
3	0	0	0	0	500	505	0	1017	37	0	
4	0	0	0	0	520	505	0	1018	37	0	
5	0	0	0	0	521	505	0	959	37	0	
6	0	0	0	0	523	505	0	694	38	0	
7	0	0	0	0	531	507	0	466	37	0	
8	0	0	0	0	524	505	0	359	37	0	
9	0	0	0	0	519	506	0	374	37	0	
10	0	0	0	0	516	508	0	612	37	0	
11	0	0	0	0	528	509	0	903	37	0	
12	0	0	0	0	543	510	0	1018	37	0	
13	0	0	0	0	547	509	0	1018	37	0	
14	0	0	0	0	551	508	0	1018	38	0	
15	0	0	0	0	534	510	0	1018	37	0	
0	0	0	0	0	526	509	0	1018	37	0	
1	0	0	0	0	524	508	0	1018	37	0	
2	0	0	0	0	519	507	0	1018	37	0	
3	0	0	0	0	503	507	0	1018	37	0	
4	0	0	0	0	488	508	0	1018	37	0	
5	0	0	0	0	467	507	0	1018	37	0	
6	0	0	0	0	441	507	0	1018	38	0	
7	0	0	0	0	433	508	0	1018	37	0	
8	0	0	0	0	452	508	0	1018	37	0	
9	0	0	0	0	480	508	0	1018	37	0	
10	0	0	0	0	512	509	0	1018	37	0	
11	0	0	0	0	540	509	0	1018	37	0	
12	0	0	0	0	570	508	0	1018	37	0	
13	0	0	0	0	582	508	0	1018	37	0	
14	0	0	0	0	583	508	0	1018	38	0	
15	0	0	0	0	583	508	0	1018	37	0	
0	0	0	0	0	580	508	0	1018	37	0	
1	0	0	0	0	577	507	0	1018	37	0	
2	0	0	0	0	572	508	0	1006	37	0	
3	0	0	0	0	551	509	0	461	37	0	
4	0	0	0	0	540	509	0	0	37	0	
5	0	0	0	0	527	508	0	0	37	0	
6	0	0	0	0	514	508	0	0	38	0	
7	0	0	0	0	504	510	0	0	37	0	
8	0	0	0	0	497	511	0	0	37	0	
9	0	0	0	0	501	512	0	0	37	0	
10	0	0	0	0	489	510	0	0	37	0	
11	0	0	0	0	485	508	0	0	37	0	
12	0	0	0	0	481	508	0	0	37	0	
13	0	0	0	0	469	508	0	0	37	0	
14	0	0	0	0	452	510	0	0	38	0	
15	0	0	0	0	420	508	0	0	37	0	
0	0	0	0	0	415	508	0	0	37	0	
1	0	0	0	0	434	508	0	0	37	0	
2	0	0	0	0	437	507	0	0	37	0	
3	0	0	0	0	451	507	0	0	37	0	
4	0	0	0	0	491	505	0	0	37	0	
5	0	0	0	0	506	505	0	0	37	0	
6	0	0	0	0	516	505	0	0	38	0	
7	0	0	0	0	517	505	0	0	37	0	
8	0	0	0	0	522	504	0	0	37	0	
9	0	0	0	0	533	502	0	0	37	0	
10	0	0	0	0	546	503	0	0	37	0	
11	0	0	0	0	542	504	0	0	37	0	
12	0	0	0	0	535	506	0	0	37	0	
13	0	0	0	0	536	506	0	0	37	0	
14	0	0	0	0	552	505	0	0	38	0	
15	0	0	0	0	549	505	0	0	37	0	
0	0	0	0	0	541	505	0	0	37	0	
1	0	0	0	0	536	503	0	0	37	0	
2	0	0	0	0	529	504	0	0	37	0	
3	0	0	0	0	514	504	0	0	37	0	
4	0	0	0	0	503	506	0	0	37	0	
5	0	0	0	0	487	506	0	0	37	0	
6	0	0	0	0	458	507	0	0	38	0	
7	0	0	0	0	476	507	0	0	37	0	
8	0	0	0	0	481	505	0	0	37	0	
9	0	0	0	0	475	505	0	0	37	0	
10	0	0	0	0	459	505	0	0	37	0	
11	0	0	0	0	447	507	0	0	37	0	
12	0	0	0	0	460	507	0	0	37	0	
13	0	0	0	0	498	508	0	0	37	0	
14	0	0	0	0	532	509	0	0	38	0	
15	0	0	0	0	537	509	0	0	37	0	
0	0	0	0	0	537	509	0	0	37	0	
1	0	0	0	0	527	508	0	0	37	0	
2	0	0	0	0	525	508	0	166	37	0	
3	0	0	0	0	536	508	0	295	37	0	
4	0	0	0	0	547	507	0	380	37	0	
5	0	0	0	0	545	508	0	454	37	0	
6	0	0	0	0	566	508	0	443	38	0	
7	0	0	0	0	568	507	0	503	37	0	
8	0	0	0	0	560	507	0	518	37	0	
9	0	0	0	0	551	508	0	279	37	0	
10	0	0	0	0	525	508	0	168	37	0	
11	0	0	0	0	489	508	0	120	37	0	
12	0	0	0	0	473	507	0	204	37	0	
13	0	0	0	0	472	507	0	452	37	0	
14	0	0	0	0	471	506	0	943	38	0	
15	0	0	0	0	470	508	0	1018	37	0	
0	0	0	0	0	467	509	0	1018	37	0	
1	0	0	0	0	458	507	0	1018	37	0	
2	0	0	0	0	461	504	0	1018	37	0	
3	0	0	0	0	459	505	0	1018	37	0	
4	0	0	0	0	467	506	0	1018	37	0	
5	0	0	0	0	486	507	0	1018	37	0	
6	0	0	0	0	507	507	0	1018	38	0	
7	0	0	0	0	519	507	0	1018	37	0	
8	0	0	0	0	534	507	0	1018	37	0	
9	0	0	0	0	548	508	0	1018	37	0	
10	0	0	0	0	570	508	0	1018	37	0	
11	0	0	0	0	579	506	0	1018	37	0	
12	0	0	0	0	575	507	0	1018	37	0	
13	0	0	0	0	572	507	0	1017	37	0	
14	0	0	0	0	579	508	0	1018	38	0	
15	0	0	0	0	593	508	0	1018	37	0	
0	0	0	0	0	584	507	0	1018	37	0	
1	0	0	0	0	563	508	0	1017	37	0	
2	0	0	0	0	517	508	0	690	37	0	
3	0	0	0	0	486	509	0	475	37	0	
4	0	0	0	0	490	510	0	263	37	0	
5	0	0	0	0	493	510	0	80	37	0	
6	0	0	0	0	487	509	0	0	37	0	
7	0	0	0	0	490	508	0	0	37	0	
8	0	0	0	0	480	510	0	0	37	0	
9	0	0	0	0	454	508	0	0	37	0	
10	0	0	0	0	432	505	0	0	37	0	
11	0	0	0	0	425	506	0	0	37	0	
12	0	0	0	0	433	507	0	0	37	0	
13	0	0	0	0	438	508	0	0	37	0	
14	0	0	0	0	450	509	0	0	37	0	
15	0	0	0	0	472	509	0	0	37	0	
0	0	0	0	0	491	505	0	0	37	0	
1	0	0	0	0	511	505	0	0	37	0	
2	0	0	0	0	535	506	0	372	37	0	
3	0	0	0	0	560	505	0	652	37	0	
4	0	0	0	0	575	507	0	936	37	0	
5	0	0	0	0	564	507	0	1018	37	0	
6	0	0	0	0	551	505	0	1018	38	0	
7	0	0	0	0	536	505	0	1018	37	0	
8	0	0	0	0	510	505	0	1018	37	0	
9	0	0	0	0	496	506	0	1018	37	0	
10	0	0	0	0	495	506	0	1018	37	0	
11	0	0	0	0	497	506	0	1018	37	0	
12	0	0	0	0	505	507	0	1018	37	0	
13	0	0	0	0	514	508	0	1018	37	0	
14	0	0	0	0	516	508	0	1018	37	0	
15	0	0	0	0	518	508	0	1018	37	0	
0	0	0	0	0	523	508	0	1018	37	0	
1	0	0	0	0	515	508	0	1018	37	0	
2	0	0	0	0	495	508	0	1018	37	0	
3	0	0	0	0	476	508	0	1018	37	0	
4	0	0	0	0	462	507	0	1018	37	0	
5	0	0	0	0	459	508	0	1017	37	0	
6	0	0	0	0	460	507	0	1018	37	0	
7	0	0	0	0	480	506	0	828	37	0	
8	0	0	0	0	487	506	0	633	37	0	
9	0	0	0	0	497	506	0	380	37	0	
10	0	0	0	0	504	506	0	28	37	0	
11	0	0	0	0	485	507	0	0	37	0	
12	0	0	0	0	463	507	0	0	37	0	
13	0	0	0	0	463	507	0	0	37	0	
14	0	0	0	0	471	508	0	0	38	0	
15	0	0	0	0	496	508	0	0	37	0	
0	0	0	0	0	523	508	0	0	37	0	
1	0	0	0	0	542	508	0	0	37	0	
2	0	0	0	0	551	509	0	0	37	0	
3	0	0	0	0	572	510	0	0	37	0	
4	0	0	0	0	597	506	0	0	37	0	
5	0	0	0	0	611	507	0	0	37	0	
6	0	0	0	0	605	508	0	0	38	0	
7	0	0	0	0	596	507	0	0	37	0	
8	0	0	0	0	580	506	0	0	37	0	
9	0	0	0	0	568	508	0	0	37	0	
10	0	0	0	0	558	506	0	0	37	0	
11	0	0	0	0	541	506	0	0	37	0	
12	0	0	0	0	531	508	0	0	37	0	
13	0	0	0	0	513	508	0	0	37	0	
14	0	0	0	0	498	507	0	0	38	0	
15	0	0	0	0	486	507	0	0	37	0	
0	0	0	0	0	473	504	0	0	37	0	
1	0	0	0	0	430	506	0	530	37	0	
2	0	0	0	0	405	506	0	939	37	0	
3	0	0	0	0	413	505	0	1018	37	0	
4	0	0	0	0	431	506	0	1018	37	0	
5	0	0	0	0	453	507	0	1018	37	0	
6	0	0	0	0	476	508	0	1018	38	0	
7	0	0	0	0	492	508	0	1018	37	0	
8	0	0	0	0	506	510	0	1018	37	0	
9	0	0	0	0	507	511	0	1018	37	0	
10	0	0	0	0	489	509	0	1018	37	0	
11	0	0	0	0	486	510	0	1018	37	0	
12	0	0	0	0	489	510	0	1018	37	0	
13	0	0	0	0	514	509	0	1018	37	0	
14	0	0	0	0	547	509	0	961	37	0	
15	0	0	0	0	570	508	0	834	37	0	
0	0	0	0	0	571	507	0	639	37	0	
1	0	0	0	0	583	508	0	293	37	0	
2	0	0	0	0	584	510	0	0	37	0	
3	0	0	0	0	571	510	0	0	37	0	
4	0	0	0	0	562	511	0	0	37	0	
5	0	0	0	0	547	511	0	0	37	0	
6	0	0	0	0	527	510	0	0	37	0	
7	0	0	0	0	519	510	0	0	37	0	
8	0	0	0	0	503	510	0	0	37	0	
9	0	0	0	0	469	510	0	0	37	0	
10	0	0	0	0	453	508	0	0	37	0	
11	0	0	0	0	454	508	0	0	37	0	
12	0	0	0	0	455	509	0	0	37	0	
13	0	0	0	0	449	509	0	0	37	0	
14	0	0	0	0	454	507	0	0	38	0	
15	0	0	0	0	467	508	0	408	37	0	
0	0	0	0	0	488	507	0	859	37	0	
1	0	0	0	0	502	507	0	1017	37	0	
2	0	0	0	0	519	506	0	1018	37	0	
3	0	0	0	0	531	507	0	1018	37	0	
4	0	0	0	0	530	508	0	1018	37	0	
5	0	0	0	0	528	505	0	1018	37	0	
6	0	0	0	0	529	506	0	1018	38	0	
7	0	0	0	0	515	508	0	1018	37	0	
8	0	0	0	0	493	508	0	1017	37	0	
9	0	0	0	0	498	510	0	1018	37	0	
10	0	0	0	0	508	508	0	902	37	0	
11	0	0	0	0	513	508	0	614	37	0	
12	0	0	0	0	503	508	0	205	37	0	
13	0	0	0	0	497	507	0	0	37	0	
14	0	0	0	0	499	505	0	0	38	0	
15	0	0	0	0	508	506	0	0	37	0	
0	0	0	0	0	516	507	0	0	37	0	
1	0	0	0	0	510	507	0	0	37	0	
2	0	0	0	0	509	506	0	0	37	0	
3	0	0	0	0	511	507	0	0	37	0	
4	0	0	0	0	502	506	0	0	37	0	
5	0	0	0	0	499	506	0	0	37	0	
6	0	0	0	0	499	508	0	0	38	0	
7	0	0	0	0	501	510	0	0	37	0	
8	0	0	0	0	499	510	0	0	37	0	
9	0	0	0	0	498	509	0	0	37	0	
10	0	0	0	0	494	508	0	213	37	0	
11	0	0	0	0	496	508	0	363	37	0	
12	0	0	0	0	504	507	0	540	37	0	
13	0	0	0	0	509	506	0	771	37	0	
14	0	0	0	0	527	506	0	921	38	0	
15	0	0	0	0	536	506	0	1018	37	0	
0	0	0	0	0	539	506	0	1018	37	0	
1	0	0	0	0	502	507	0	1017	37	0	
2	0	0	0	0	501	506	0	1018	37	0	
3	0	0	0	0	529	507	0	1018	37	0	
4	0	0	0	0	549	506	0	1018	37	0	
5	0	0	0	0	550	506	0	1018	37	0	
6	0	0	0	0	555	508	0	1018	38	0	
7	0	0	0	0	547	508	0	1018	37	0	
8	0	0	0	0	533	508	0	1018	37	0	
9	0	0	0	0	516	508	0	1018	37	0	
10	0	0	0	0	502	508	0	1018	37	0	
11	0	0	0	0	489	507	0	1017	37	0	
12	0	0	0	0	470	508	0	807	37	0	
13	0	0	0	0	452	508	0	422	37	0	
14	0	0	0	0	444	509	0	42	38	0	
15	0	0	0	0	446	508	0	0	37	0	
0	0	0	0	0	446	507	0	0	37	0	
1	0	0	0	0	446	507	0	0	37	0	
2	0	0	0	0	452	507	0	0	37	0	
3	0	0	0	0	478	507	0	0	37	0	
4	0	0	0	0	521	508	0	0	37	0	
5	0	0	0	0	564	509	0	0	37	0	
6	0	0	0	0	596	509	0	0	38	0	
7	0	0	0	0	600	510	0	0	37	0	
8	0	0	0	0	608	509	0	0	37	0	
9	0	0	0	0	595	511	0	0	37	0	
10	0	0	0	0	580	510	0	463	37	0	
11	0	0	0	0	563	509	0	859	37	0	
12	0	0	0	0	552	511	0	1017	37	0	
13	0	0	0	0	539	511	0	1018	37	0	
14	0	0	0	0	525	511	0	1018	37	0	
15	0	0	0	0	506	510	0	844	37	0	
0	0	0	0	0	486	509	0	724	37	0	
1	0	0	0	0	474	510	0	596	37	0	
2	0	0	0	0	464	509	0	595	37	0	
3	0	0	0	0	463	508	0	479	37	0	
4	0	0	0	0	468	508	0	336	37	0	
5	0	0	0	0	475	507	0	187	37	0	
6	0	0	0	0	484	507	0	105	38	0	
7	0	0	0	0	494	508	0	32	37	0	
8	0	0	0	0	500	507	0	35	37	0	
9	0	0	0	0	525	506	0	0	37	0	
10	0	0	0	0	532	507	0	0	37	0	
11	0	0	0	0	512	506	0	0	37	0	
12	0	0	0	0	494	506	0	0	37	0	
13	0	0	0	0	466	506	0	0	37	0	
14	0	0	0	0	429	508	0	0	38	0	
15	0	0	0	0	415	508	0	0	37	0	
0	0	0	0	0	423	508	0	0	37	0	
1	0	0	0	0	448	508	0	0	37	0	
2	0	0	0	0	461	508	0	0	37	0	
3	0	0	0	0	508	508	0	0	37	0	
4	0	0	0	0	572	508	0	0	37	0	
5	0	0	0	0	598	509	0	0	37	0	
6	0	0	0	0	596	510	0	0	38	0	
7	0	0	0	0	570	509	0	0	37	0	
8	0	0	0	0	548	508	0	0	37	0	
9	0	0	0	0	532	508	0	0	37	0	
10	0	0	0	0	525	509	0	0	37	0	
11	0	0	0	0	525	508	0	0	37	0	
12	0	0	0	0	530	508	0	0	37	0	
13	0	0	0	0	542	508	0	0	37	0	
14	0	0	0	0	535	509	0	155	38	0	
15	0	0	0	0	511	506	0	327	37	0	
0	0	0	0	0	474	506	0	568	37	0	
1	0	0	0	0	432	507	0	974	37	0	
2	0	0	0	0	402	507	0	1018	37	0	
3	0	0	0	0	393	509	0	1018	37	0	
4	0	0	0	0	432	508	0	1018	37	0	
5	0	0	0	0	472	507	0	1018	37	0	
6	0	0	0	0	510	507	0	1018	38	0	
7	0	0	0	0	553	507	0	1018	37	0	
8	0	0	0	0	573	507	0	1018	37	0	
9	0	0	0	0	579	509	0	1018	37	0	
10	0	0	0	0	559	508	0	1018	37	0	
11	0	0	0	0	549	509	0	1018	37	0	
12	0	0	0	0	548	508	0	1018	37	0	
13	0	0	0	0	540	507	0	1018	37	0	
14	0	0	0	0	537	509	0	1018	38	0	
15	0	0	0	0	520	509	0	1018	37	0	
0	0	0	0	0	519	509	0	1018	37	0	
1	0	0	0	0	527	510	0	1018	37	0	
2	0	0	0	0	537	510	0	1018	37	0	
3	0	0	0	0	548	509	0	1018	37	0	
4	0	0	0	0	547	507	0	1018	37	0	
5	0	0	0	0	536	507	0	1018	37	0	
6	0	0	0	0	525	507	0	1018	38	0	
7	0	0	0	0	514	506	0	1018	37	0	
8	0	0	0	0	503	505	0	1018	37	0	
9	0	0	0	0	465	505	0	1018	37	0	
10	0	0	0	0	426	504	0	1018	37	0	
11	0	0	0	0	376	504	0	1018	37	0	
12	0	0	0	0	363	505	0	1018	37	0	
13	0	0	0	0	388	504	0	1018	37	0	
14	0	0	0	0	452	505	0	1018	38	0	
15	0	0	0	0	489	506	0	1018	37	0	
0	0	0	0	0	527	505	0	1018	37	0	
1	0	0	0	0	549	506	0	1018	37	0	
2	0	0	0	0	579	506	0	1018	37	0	
3	0	0	0	0	603	507	0	1018	37	0	
4	0	0	0	0	623	508	0	1018	37	0	
5	0	0	0	0	630	510	0	1018	37	0	
6	0	0	0	0	625	510	0	1018	38	0	
7	0	0	0	0	614	510	0	1018	37	0	
8	0	0	0	0	572	511	0	1018	37	0	
9	0	0	0	0	542	512	0	1018	37	0	
10	0	0	0	0	513	512	0	1018	37	0	
11	0	0	0	0	492	510	0	1018	37	0	
12	0	0	0	0	483	511	0	1018	37	0	
13	0	0	0	0	491	510	0	1018	37	0	
14	0	0	0	0	478	509	0	1018	38	0	
15	0	0	0	0	464	509	0	1018	37	0	
0	0	0	0	0	462	509	0	1018	37	0	
1	0	0	0	0	468	509	0	1018	37	0	
2	0	0	0	0	474	510	0	1018	37	0	
3	0	0	0	0	478	511	0	1018	37	0	
4	0	0	0	0	476	511	0	1018	37	0	
5	0	0	0	0	477	512	0	1018	37	0	
6	0	0	0	0	481	512	0	1018	37	0	
7	0	0	0	0	491	511	0	1018	37	0	
8	0	0	0	0	487	511	0	1018	37	0	
9	0	0	0	0	491	511	0	1018	37	0	
10	0	0	0	0	499	510	0	1018	37	0	
11	0	0	0	0	503	511	0	1018	37	0	
12	0	0	0	0	484	510	0	1018	37	0	
13	0	0	0	0	472	508	0	1018	37	0	
14	0	0	0	0	475	508	0	1018	37	0	
15	0	0	0	0	494	507	0	1018	37	0	
0	0	0	0	0	521	507	0	1018	37	0	
1	0	0	0	0	538	507	0	1018	37	0	
2	0	0	0	0	524	507	0	1018	37	0	
3	0	0	0	0	508	506	0	1018	37	0	
4	0	0	0	0	527	504	0	1018	37	0	
5	0	0	0	0	560	505	0	1018	37	0	
6	0	0	0	0	580	506	0	1018	37	0	
7	0	0	0	0	569	505	0	1018	37	0	
8	0	0	0	0	536	505	0	1018	37	0	
9	0	0	0	0	499	504	0	1018	37	0	
10	0	0	0	0	481	506	0	1018	37	0	
11	0	0	0	0	461	508	0	1018	37	0	
12	0	0	0	0	468	508	0	1018	37	0	
13	0	0	0	0	474	508	0	1018	37	0	
14	0	0	0	0	482	508	0	1018	37	0	
15	0	0	0	0	487	509	0	1018	37	0	
0	0	0	0	0	489	512	0	1018	37	0	
1	0	0	0	0	499	511	0	1018	37	0	
2	0	0	0	0	496	511	0	1018	37	0	
3	0	0	0	0	501	512	0	1018	37	0	
4	0	0	0	0	522	512	0	1018	37	0	
5	0	0	0	0	525	511	0	1018	37	0	
6	0	0	0	0	521	510	0	1018	37	0	
7	0	0	0	0	495	510	0	1018	37	0	
8	0	0	0	0	479	510	0	1018	37	0	
9	0	0	0	0	504	510	0	1018	37	0	
10	0	0	0	0	545	508	0	1018	37	0	
11	0	0	0	0	566	509	0	1018	37	0	
12	0	0	0	0	564	507	0	1018	37	0	
13	0	0	0	0	560	508	0	1018	37	0	
14	0	0	0	0	534	507	0	1018	37	0	
15	0	0	0	0	519	508	0	1018	37	0	
0	0	0	0	0	521	508	0	1018	37	0	
1	0	0	0	0	516	508	0	1018	37	0	
2	0	0	0	0	508	505	0	1018	37	0	
3	0	0	0	0	502	506	0	1018	37	0	
4	0	0	0	0	499	506	0	1018	37	0	
5	0	0	0	0	500	507	0	1018	37	0	
6	0	0	0	0	491	507	0	1018	37	0	
7	0	0	0	0	485	505	0	1018	37	0	
8	0	0	0	0	486	505	0	1018	37	0	
9	0	0	0	0	488	506	0	1018	37	0	
10	0	0	0	0	480	505	0	1018	37	0	
11	0	0	0	0	470	505	0	1018	37	0	
12	0	0	0	0	472	504	0	1018	37	0	
13	0	0	0	0	483	505	0	1018	37	0	
14	0	0	0	0	496	507	0	1018	37	0	
15	0	0	0	0	515	508	0	1018	37	0	
0	0	0	0	0	526	507	0	1018	37	0	
1	0	0	0	0	530	507	0	1018	37	0	
2	0	0	0	0	529	508	0	1017	37	0	
3	0	0	0	0	538	507	0	761	37	0	
4	0	0	0	0	524	507	0	565	37	0	
5	0	0	0	0	504	508	0	281	37	0	
6	0	0	0	0	496	508	0	0	37	0	
7	0	0	0	0	495	508	0	0	37	0	
8	0	0	0	0	505	507	0	0	37	0	
9	0	0	0	0	516	506	0	0	37	0	
10	0	0	0	0	534	506	0	0	37	0	
11	0	0	0	0	550	506	0	0	37	0	
12	0	0	0	0	560	507	0	0	37	0	
13	0	0	0	0	552	507	0	0	37	0	
14	0	0	0	0	525	509	0	0	37	0	
15	0	0	0	0	513	508	0	0	37	0	
0	0	0	0	0	508	508	0	0	37	0	
1	0	0	0	0	503	507	0	0	37	0	
2	0	0	0	0	507	507	0	0	37	0	
3	0	0	0	0	511	508	0	0	37	0	
4	0	0	0	0	521	508	0	0	37	0	
5	0	0	0	0	527	508	0	0	37	0	
6	0	0	0	0	520	509	0	0	37	0	
7	0	0	0	0	517	509	0	0	37	0	
8	0	0	0	0	517	510	0	0	37	0	
9	0	0	0	0	515	509	0	0	37	0	
10	0	0	0	0	507	508	0	0	37	0	
11	0	0	0	0	502	506	0	0	37	0	
12	0	0	0	0	494	508	0	0	37	0	
13	0	0	0	0	476	510	0	0	37	0	
14	0	0	0	0	458	508	0	0	37	0	
15	0	0	0	0	443	507	0	0	37	0	
0	0	0	0	0	452	508	0	0	37	0	
1	0	0	0	0	459	508	0	0	37	0	
2	0	0	0	0	476	508	0	0	37	0	
3	0	0	0	0	503	508	0	0	37	0	
4	0	0	0	0	474	508	0	0	37	0	
5	0	0	0	0	447	508	0	0	37	0	
6	0	0	0	0	455	508	0	0	37	0	
7	0	0	0	0	496	509	0	217	37	0	
8	0	0	0	0	551	508	0	657	37	0	
9	0	0	0	0	587	507	0	1018	37	0	
10	0	0	0	0	585	509	0	1018	37	0	
11	0	0	0	0	556	508	0	1018	37	0	
12	0	0	0	0	540	508	0	1018	37	0	
13	0	0	0	0	553	509	0	1018	37	0	
14	0	0	0	0	555	508	0	1018	37	0	
15	0	0	0	0	552	507	0	1018	37	0	
0	0	0	0	0	561	507	0	1018	37	0	
1	0	0	0	0	551	507	0	1018	37	0	
2	0	0	0	0	542	508	0	1018	37	0	
3	0	0	0	0	526	507	0	1018	37	0	
4	0	0	0	0	499	508	0	1018	37	0	
5	0	0	0	0	486	507	0	1018	37	0	
6	0	0	0	0	476	507	0	1018	38	0	
7	0	0	0	0	455	507	0	876	37	0	
8	0	0	0	0	432	508	0	612	37	0	
9	0	0	0	0	422	510	0	253	37	0	
10	0	0	0	0	437	511	0	0	37	0	
11	0	0	0	0	465	509	0	0	37	0	
12	0	0	0	0	490	509	0	0	37	0	
13	0	0	0	0	505	510	0	0	37	0	
14	0	0	0	0	500	510	0	0	38	0	
15	0	0	0	0	515	511	0	0	37	0	
0	0	0	0	0	536	509	0	346	37	0	
1	0	0	0	0	557	510	0	932	37	0	
2	0	0	0	0	551	508	0	1018	37	0	
3	0	0	0	0	507	509	0	1018	37	0	
4	0	0	0	0	479	509	0	1018	37	0	
5	0	0	0	0	478	508	0	1018	37	0	
6	0	0	0	0	497	510	0	1018	38	0	
7	0	0	0	0	517	508	0	1018	37	0	
8	0	0	0	0	538	507	0	1018	37	0	
9	0	0	0	0	553	507	0	1018	37	0	
10	0	0	0	0	556	506	0	1018	37	0	
11	0	0	0	0	560	507	0	1018	37	0	
12	0	0	0	0	562	508	0	1018	37	0	
13	0	0	0	0	568	506	0	1018	37	0	
14	0	0	0	0	574	505	0	1018	38	0	
15	0	0	0	0	562	507	0	1018	37	0	
0	0	0	0	0	551	508	0	1018	37	0	
1	0	0	0	0	513	509	0	1018	37	0	
2	0	0	0	0	498	509	0	1018	37	0	
3	0	0	0	0	486	508	0	1018	38	0	
4	0	0	0	0	467	509	0	1018	37	0	
5	0	0	0	0	445	508	0	1018	38	0	
6	0	0	0	0	438	507	0	1018	38	0	
7	0	0	0	0	443	508	0	1018	38	0	
8	0	0	0	0	460	508	0	1018	38	0	
9	0	0	0	0	479	508	0	1018	38	0	
10	0	0	0	0	479	508	0	1018	37	0	
11	0	0	0	0	473	506	0	1018	38	0	
12	0	0	0	0	478	507	0	1018	38	0	
13	0	0	0	0	499	509	0	1018	38	0	
14	0	0	0	0	513	508	0	775	38	0	
15	0	0	0	0	503	507	0	550	38	0	
0	0	0	0	0	517	505	0	355	38	0	
1	0	0	0	0	575	505	0	176	38	0	
2	0	0	0	0	607	505	0	71	37	0	
3	0	0	0	0	595	507	0	108	38	0	
4	0	0	0	0	595	507	0	127	38	0	
5	0	0	0	0	574	507	0	85	38	0	
6	0	0	0	0	480	508	0	1	38	0	
7	0	0	0	0	393	509	0	0	38	0	
8	0	0	0	0	428	508	0	0	38	0	
9	0	0	0	0	511	508	0	0	38	0	
10	0	0	0	0	547	508	0	0	37	0	
11	0	0	0	0	549	506	0	0	38	0	
12	0	0	0	0	543	505	0	0	38	0	
13	0	0	0	0	530	504	0	102	38	0	
14	0	0	0	0	508	505	0	89	38	0	
15	0	0	0	0	489	508	0	47	37	0	
0	0	0	0	0	477	507	0	0	37	0	
1	0	0	0	0	471	508	0	0	37	0	
2	0	0	0	0	431	509	0	0	37	0	
3	0	0	0	0	394	510	0	0	38	0	
4	0	0	0	0	400	508	0	0	38	0	
5	0	0	0	0	420	508	0	0	38	0	
6	0	0	0	0	443	508	0	0	38	0	
7	0	0	0	0	484	508	0	0	37	0	
8	0	0	0	0	548	509	0	0	37	0	
9	0	0	0	0	591	509	0	0	38	0	
10	0	0	0	0	604	507	0	0	37	0	
11	0	0	0	0	599	506	0	0	37	0	
12	0	0	0	0	586	506	0	0	37	0	
13	0	0	0	0	564	505	0	0	38	0	
14	0	0	0	0	543	505	0	0	38	0	
15	0	0	0	0	543	506	0	0	37	0	
0	0	0	0	0	541	507	0	0	37	0	
1	0	0	0	0	526	507	0	0	37	0	
2	0	0	0	0	528	507	0	0	37	0	
3	0	0	0	0	536	507	0	0	37	0	
4	0	0	0	0	526	507	0	0	37	0	
5	0	0	0	0	519	507	0	0	37	0	
6	0	0	0	0	513	508	0	0	38	0	
7	0	0	0	0	502	508	0	0	37	0	
8	0	0	0	0	489	507	0	0	37	0	
9	0	0	0	0	488	508	0	0	37	0	
10	0	0	0	0	488	508	0	0	37	0	
11	0	0	0	0	471	509	0	0	37	0	
12	0	0	0	0	455	507	0	0	37	0	
13	0	0	0	0	446	506	0	0	37	0	
14	0	0	0	0	447	505	0	0	38	0	
15	0	0	0	0	465	506	0	0	37	0	
0	0	0	0	0	480	507	0	0	37	0	
1	0	0	0	0	488	508	0	0	37	0	
2	0	0	0	0	493	509	0	0	37	0	
3	0	0	0	0	497	509	0	0	37	0	
4	0	0	0	0	508	509	0	0	37	0	
5	0	0	0	0	528	510	0	0	37	0	
6	0	0	0	0	537	510	0	0	38	0	
7	0	0	0	0	535	509	0	0	37	0	
8	0	0	0	0	537	510	0	0	37	0	
9	0	0	0	0	543	510	0	0	37	0	
10	0	0	0	0	555	511	0	0	37	0	
11	0	0	0	0	560	511	0	0	37	0	
12	0	0	0	0	551	510	0	0	37	0	
13	0	0	0	0	545	510	0	0	37	0	
14	0	0	0	0	529	510	0	0	38	0	
15	0	0	0	0	524	511	0	0	37	0	
0	0	0	0	0	516	507	0	0	37	0	
1	0	0	0	0	503	504	0	0	37	0	
2	0	0	0	0	497	506	0	0	37	0	
3	0	0	0	0	504	505	0	0	37	0	
4	0	0	0	0	511	506	0	0	37	0	
5	0	0	0	0	508	506	0	0	37	0	
6	0	0	0	0	499	505	0	0	37	0	
7	0	0	0	0	490	506	0	0	37	0	
8	0	0	0	0	480	507	0	0	37	0	
9	0	0	0	0	476	508	0	0	37	0	
10	0	0	0	0	471	508	0	0	37	0	
11	0	0	0	0	456	508	0	0	37	0	
12	0	0	0	0	457	511	0	0	37	0	
13	0	0	0	0	473	511	0	0	37	0	
14	0	0	0	0	481	512	0	0	37	0	
15	0	0	0	0	475	511	0	0	37	0	
0	0	0	0	0	490	510	0	0	37	0	
1	0	0	0	0	532	510	0	0	37	0	
2	0	0	0	0	574	509	0	0	37	0	
3	0	0	0	0	575	509	0	0	37	0	
4	0	0	0	0	580	510	0	0	37	0	
5	0	0	0	0	578	511	0	0	37	0	
6	0	0	0	0	560	508	0	0	37	0	
7	0	0	0	0	538	507	0	0	37	0	
8	0	0	0	0	501	507	0	0	37	0	
9	0	0	0	0	489	506	0	0	37	0	
10	0	0	0	0	461	506	0	0	37	0	
11	0	0	0	0	445	507	0	0	37	0	
12	0	0	0	0	449	509	0	0	37	0	
13	0	0	0	0	474	510	0	0	37	0	
14	0	0	0	0	499	510	0	0	37	0	
15	0	0	0	0	519	509	0	0	37	0	
0	0	0	0	0	529	508	0	0	37	0	
1	0	0	0	0	534	508	0	0	37	0	
2	0	0	0	0	520	507	0	0	37	0	
3	0	0	0	0	494	507	0	0	37	0	
4	0	0	0	0	471	505	0	0	37	0	
5	0	0	0	0	470	504	0	0	37	0	
6	0	0	0	0	492	504	0	0	37	0	
7	0	0	0	0	494	505	0	0	37	0	
8	0	0	0	0	488	506	0	0	37	0	
9	0	0	0	0	481	505	0	0	37	0	
10	0	0	0	0	469	505	0	0	37	0	
11	0	0	0	0	491	505	0	0	37	0	
12	0	0	0	0	494	507	0	0	37	0	
13	0	0	0	0	502	506	0	0	37	0	
14	0	0	0	0	514	507	0	0	37	0	
15	0	0	0	0	529	508	0	0	37	0	
0	0	0	0	0	552	509	0	0	37	0	
1	0	0	0	0	572	508	0	0	37	0	
2	0	0	0	0	577	509	0	0	37	0	
3	0	0	0	0	577	507	0	0	37	0	
4	0	0	0	0	586	506	0	0	37	0	
5	0	0	0	0	582	509	0	0	37	0	
6	0	0	0	0	565	507	0	0	37	0	
7	0	0	0	0	544	507	0	0	37	0	
8	0	0	0	0	519	508	0	0	37	0	
9	0	0	0	0	487	507	0	0	37	0	
10	0	0	0	0	484	508	0	0	37	0	
11	0	0	0	0	492	508	0	0	37	0	
12	0	0	0	0	492	507	0	0	37	0	
13	0	0	0	0	496	508	0	0	37	0	
14	0	0	0	0	497	507	0	0	37	0	
15	0	0	0	0	492	509	0	0	37	0	
0	0	0	0	0	465	508	0	0	37	0	
1	0	0	0	0	450	509	0	0	37	0	
2	0	0	0	0	467	509	0	0	37	0	
3	0	0	0	0	477	511	0	0	37	0	
4	0	0	0	0	487	510	0	0	37	0	
5	0	0	0	0	502	510	0	0	37	0	
6	0	0	0	0	530	510	0	0	37	0	
7	0	0	0	0	542	509	0	0	37	0	
8	0	0	0	0	542	509	0	0	37	0	
9	0	0	0	0	531	508	0	0	37	0	
10	0	0	0	0	512	508	0	0	37	0	
11	0	0	0	0	507	509	0	0	37	0	
12	0	0	0	0	514	508	0	0	37	0	
13	0	0	0	0	514	510	0	0	37	0	
14	0	0	0	0	509	510	0	0	37	0	
15	0	0	0	0	498	509	0	0	37	0	
0	0	0	0	0	489	508	0	0	37	0	
1	0	0	0	0	484	508	0	0	37	0	
2	0	0	0	0	486	507	0	0	37	0	
3	0	0	0	0	497	507	0	0	37	0	
4	0	0	0	0	506	507	0	0	37	0	
5	0	0	0	0	522	508	0	0	37	0	
6	0	0	0	0	536	507	0	0	37	0	
7	0	0	0	0	558	508	0	0	37	0	
8	0	0	0	0	573	509	0	0	37	0	
9	0	0	0	0	570	508	0	0	37	0	
10	0	0	0	0	539	509	0	0	37	0	
11	0	0	0	0	457	508	0	380	37	0	
12	0	0	0	0	390	509	0	897	37	0	
13	0	0	0	0	381	506	0	1018	37	0	
14	0	0	0	0	439	507	0	1018	37	0	
15	0	0	0	0	497	508	0	1018	37	0	
0	0	0	0	0	528	508	0	1018	37	0	
1	0	0	0	0	531	508	0	1018	37	0	
2	0	0	0	0	531	508	0	1018	37	0	
3	0	0	0	0	513	508	0	1018	37	0	
4	0	0	0	0	498	510	0	1018	37	0	
5	0	0	0	0	492	509	0	1018	37	0	
6	0	0	0	0	510	508	0	1018	37	0	
7	0	0	0	0	528	509	0	1018	37	0	
8	0	0	0	0	534	509	0	1018	37	0	
9	0	0	0	0	560	508	0	1018	37	0	
10	0	0	0	0	570	508	0	1018	37	0	
11	0	0	0	0	576	509	0	1018	37	0	
12	0	0	0	0	590	508	0	1018	37	0	
13	0	0	0	0	581	509	0	1018	37	0	
14	0	0	0	0	533	512	0	1018	38	0	
15	0	0	0	0	461	510	0	1018	37	0	
0	0	0	0	0	429	510	0	1018	37	0	
1	0	0	0	0	434	507	0	1018	37	0	
2	0	0	0	0	417	507	0	1018	37	0	
3	0	0	0	0	386	507	0	1018	37	0	
4	0	0	0	0	403	507	0	1018	37	0	
5	0	0	0	0	485	508	0	1018	37	0	
6	0	0	0	0	558	510	0	1018	38	0	
7	0	0	0	0	580	509	0	1018	37	0	
8	0	0	0	0	579	509	0	1018	37	0	
9	0	0	0	0	551	508	0	1018	37	0	
10	0	0	0	0	527	507	0	1018	37	0	
11	0	0	0	0	540	506	0	1018	37	0	
12	0	0	0	0	563	508	0	1018	37	0	
13	0	0	0	0	566	507	0	1018	38	0	
14	0	0	0	0	556	507	0	1018	38	0	
15	0	0	0	0	552	506	0	1018	37	0	
0	0	0	0	0	519	506	0	1018	37	0	
1	0	0	0	0	459	506	0	1018	37	0	
2	0	0	0	0	426	505	0	1018	37	0	
3	0	0	0	0	454	506	0	1018	37	0	
4	0	0	0	0	493	508	0	1018	37	0	
5	0	0	0	0	514	509	0	1018	38	0	
6	0	0	0	0	506	508	0	1018	38	0	
7	0	0	0	0	496	508	0	1018	37	0	
8	0	0	0	0	504	508	0	1018	37	0	
9	0	0	0	0	508	508	0	1018	37	0	
10	0	0	0	0	500	508	0	1018	37	0	
11	0	0	0	0	489	509	0	1018	37	0	
12	0	0	0	0	490	511	0	1018	37	0	
13	0	0	0	0	495	510	0	1018	37	0	
14	0	0	0	0	499	509	0	1018	38	0	
15	0	0	0	0	510	509	0	1018	37	0	
0	0	0	0	0	517	508	0	1018	37	0	
1	0	0	0	0	519	509	0	1018	37	0	
2	0	0	0	0	512	507	0	1018	37	0	
3	0	0	0	0	512	509	0	1018	37	0	
4	0	0	0	0	516	508	0	1018	37	0	
5	0	0	0	0	526	508	0	1018	37	0	
6	0	0	0	0	539	509	0	1018	38	0	
7	0	0	0	0	542	510	0	1018	37	0	
8	0	0	0	0	550	509	0	1018	37	0	
9	0	0	0	0	548	509	0	1018	37	0	
10	0	0	0	0	535	508	0	1018	37	0	
11	0	0	0	0	519	508	0	1018	37	0	
12	0	0	0	0	512	509	0	1018	37	0	
13	0	0	0	0	492	508	0	1018	37	0	
14	0	0	0	0	489	509	0	1018	38	0	
15	0	0	0	0	487	508	0	1018	37	0	
0	0	0	0	0	495	508	0	1018	37	0	
1	0	0	0	0	502	507	0	1017	37	0	
2	0	0	0	0	503	505	0	524	37	0	
3	0	0	0	0	498	504	0	103	37	0	
4	0	0	0	0	480	504	0	0	37	0	
5	0	0	0	0	453	505	0	0	37	0	
6	0	0	0	0	446	508	0	0	38	0	
7	0	0	0	0	455	507	0	0	37	0	
8	0	0	0	0	487	507	0	0	37	0	
9	0	0	0	0	515	507	0	0	37	0	
10	0	0	0	0	528	508	0	0	37	0	
11	0	0	0	0	530	508	0	0	37	0	
12	0	0	0	0	533	508	0	0	37	0	
13	0	0	0	0	540	507	0	0	37	0	
14	0	0	0	0	544	508	0	0	38	0	
15	0	0	0	0	550	507	0	0	37	0	
0	0	0	0	0	554	508	0	0	37	0	
1	0	0	0	0	543	508	0	0	37	0	
2	0	0	0	0	531	508	0	0	37	0	
3	0	0	0	0	521	508	0	0	37	0	
4	0	0	0	0	529	506	0	0	37	0	
5	0	0	0	0	527	507	0	0	37	0	
6	0	0	0	0	502	508	0	0	38	0	
7	0	0	0	0	472	508	0	0	37	0	
8	0	0	0	0	445	508	0	0	37	0	
9	0	0	0	0	438	508	0	0	37	0	
10	0	0	0	0	443	507	0	0	37	0	
11	0	0	0	0	436	506	0	0	37	0	
12	0	0	0	0	426	506	0	0	37	0	
13	0	0	0	0	418	506	0	0	37	0	
14	0	0	0	0	455	507	0	0	38	0	
15	0	0	0	0	506	507	0	0	37	0	
0	0	0	0	0	553	508	0	0	37	0	
1	0	0	0	0	588	508	0	0	37	0	
2	0	0	0	0	590	508	0	0	37	0	
3	0	0	0	0	587	510	0	0	37	0	
4	0	0	0	0	597	509	0	0	37	0	
5	0	0	0	0	599	508	0	0	37	0	
6	0	0	0	0	595	510	0	0	37	0	
7	0	0	0	0	568	508	0	0	37	0	
8	0	0	0	0	539	508	0	0	37	0	
9	0	0	0	0	513	508	0	0	37	0	
10	0	0	0	0	516	508	0	0	37	0	
11	0	0	0	0	498	509	0	0	37	0	
12	0	0	0	0	484	509	0	0	37	0	
13	0	0	0	0	463	508	0	0	37	0	
14	0	0	0	0	439	508	0	0	37	0	
15	0	0	0	0	414	507	0	0	37	0	
0	0	0	0	0	451	507	0	0	37	0	
1	0	0	0	0	504	508	0	0	37	0	
2	0	0	0	0	538	508	0	0	37	0	
3	0	0	0	0	547	510	0	0	37	0	
4	0	0	0	0	541	509	0	0	37	0	
5	0	0	0	0	525	511	0	0	37	0	
6	0	0	0	0	494	509	0	0	37	0	
7	0	0	0	0	475	509	0	0	37	0	
8	0	0	0	0	460	509	0	0	37	0	
9	0	0	0	0	470	509	0	0	37	0	
10	0	0	0	0	470	511	0	0	37	0	
11	0	0	0	0	485	511	0	0	37	0	
12	0	0	0	0	496	511	0	0	37	0	
13	0	0	0	0	501	510	0	0	37	0	
14	0	0	0	0	515	509	0	0	37	0	
15	0	0	0	0	541	507	0	0	37	0	
0	0	0	0	0	554	508	0	0	37	0	
1	0	0	0	0	544	508	0	0	37	0	
2	0	0	0	0	528	505	0	0	36	0	
3	0	0	0	0	531	505	0	0	37	0	
4	0	0	0	0	533	505	0	0	37	0	
5	0	0	0	0	535	505	0	0	37	0	
6	0	0	0	0	536	504	0	0	37	0	
7	0	0	0	0	534	504	0	0	37	0	
8	0	0	0	0	537	502	0	0	37	0	
9	0	0	0	0	539	504	0	0	37	0	
10	0	0	0	0	529	504	0	0	36	0	
11	0	0	0	0	512	504	0	0	37	0	
12	0	0	0	0	498	503	0	0	37	0	
13	0	0	0	0	494	503	0	0	37	0	
14	0	0	0	0	495	504	0	0	37	0	
15	0	0	0	0	487	506	0	0	37	0	
0	0	0	0	0	480	506	0	467	37	0	
1	0	0	0	0	484	507	0	692	37	0	
2	0	0	0	0	483	508	0	857	37	0	
3	0	0	0	0	463	507	0	1018	37	0	
4	0	0	0	0	441	508	0	1018	37	0	
5	0	0	0	0	453	508	0	1018	37	0	
6	0	0	0	0	486	507	0	1018	37	0	
7	0	0	0	0	497	507	0	1018	37	0	
8	0	0	0	0	496	507	0	1018	37	0	
9	0	0	0	0	515	508	0	1018	37	0	
10	0	0	0	0	556	508	0	1018	37	0	
11	0	0	0	0	568	507	0	1018	37	0	
12	0	0	0	0	561	506	0	1018	37	0	
13	0	0	0	0	554	508	0	1018	37	0	
14	0	0	0	0	553	508	0	1018	37	0	
15	0	0	0	0	545	507	0	1018	37	0	
0	0	0	0	0	530	508	0	1018	37	0	
1	0	0	0	0	527	508	0	1018	37	0	
2	0	0	0	0	536	508	0	1018	37	0	
3	0	0	0	0	536	509	0	1018	37	0	
4	0	0	0	0	549	509	0	1018	37	0	
5	0	0	0	0	550	508	0	1018	37	0	
6	0	0	0	0	518	508	0	1018	37	0	
7	0	0	0	0	433	509	0	1018	37	0	
8	0	0	0	0	369	508	0	1018	37	0	
9	0	0	0	0	355	507	0	1018	37	0	
10	0	0	0	0	370	507	0	1018	37	0	
11	0	0	0	0	398	507	0	1018	37	0	
12	0	0	0	0	431	505	0	1018	37	0	
13	0	0	0	0	478	505	0	1018	37	0	
14	0	0	0	0	519	504	0	1018	38	0	
15	0	0	0	0	540	505	0	1018	37	0	
0	0	0	0	0	547	505	0	1018	37	0	
1	0	0	0	0	556	505	0	1018	37	0	
2	0	0	0	0	573	507	0	1018	37	0	
3	0	0	0	0	579	507	0	1018	37	0	
4	0	0	0	0	591	507	0	1018	37	0	
5	0	0	0	0	606	509	0	1018	37	0	
6	0	0	0	0	609	509	0	1018	38	0	
7	0	0	0	0	589	509	0	1018	37	0	
8	0	0	0	0	585	507	0	1018	37	0	
9	0	0	0	0	579	507	0	1018	37	0	
10	0	0	0	0	554	507	0	1018	37	0	
11	0	0	0	0	538	507	0	1018	37	0	
12	0	0	0	0	522	508	0	1018	37	0	
13	0	0	0	0	500	508	0	1018	38	0	
14	0	0	0	0	461	508	0	1018	38	0	
15	0	0	0	0	440	508	0	1018	38	0	
0	0	0	0	0	425	510	0	1018	38	0	
1	0	0	0	0	415	509	0	1018	38	0	
2	0	0	0	0	414	510	0	1018	37	0	
3	0	0	0	0	439	510	0	1018	38	0	
4	0	0	0	0	465	510	0	1018	37	0	
5	0	0	0	0	478	508	0	1018	38	0	
6	0	0	0	0	465	509	0	1018	38	0	
7	0	0	0	0	478	509	0	1018	37	0	
8	0	0	0	0	500	507	0	1018	38	0	
9	0	0	0	0	519	508	0	1018	38	0	
10	0	0	0	0	538	509	0	1018	37	0	
11	0	0	0	0	541	509	0	1018	38	0	
12	0	0	0	0	543	508	0	1018	38	0	
13	0	0	0	0	550	506	0	1018	38	0	
14	0	0	0	0	546	506	0	1018	38	0	
15	0	0	0	0	534	506	0	1018	38	0	
0	0	0	0	0	534	506	0	1018	38	0	
1	0	0	0	0	536	509	0	1018	37	0	
2	0	0	0	0	535	508	0	1018	37	0	
3	0	0	0	0	532	508	0	1018	37	0	
4	0	0	0	0	526	508	0	1018	38	0	
5	0	0	0	0	516	508	0	1018	37	0	
6	0	0	0	0	517	509	0	771	38	0	
7	0	0	0	0	515	508	0	363	37	0	
8	0	0	0	0	508	508	0	22	37	0	
9	0	0	0	0	500	508	0	0	37	0	
10	0	0	0	0	489	506	0	0	37	0	
11	0	0	0	0	476	507	0	0	37	0	
12	0	0	0	0	469	508	0	0	37	0	
13	0	0	0	0	447	507	0	0	37	0	
14	0	0	0	0	440	506	0	0	38	0	
15	0	0	0	0	439	506	0	0	37	0	
0	0	0	0	0	464	507	0	496	37	0	
1	0	0	0	0	483	506	0	931	37	0	
2	0	0	0	0	511	505	0	1018	37	0	
3	0	0	0	0	530	505	0	1018	37	0	
4	0	0	0	0	534	508	0	1018	37	0	
5	0	0	0	0	555	508	0	1017	37	0	
6	0	0	0	0	555	509	0	1017	38	0	
7	0	0	0	0	567	508	0	792	37	0	
8	0	0	0	0	586	510	0	481	37	0	
9	0	0	0	0	587	507	0	217	37	0	
10	0	0	0	0	559	505	0	60	37	0	
11	0	0	0	0	522	504	0	0	37	0	
12	0	0	0	0	508	506	0	0	37	0	
13	0	0	0	0	506	507	0	0	37	0	
14	0	0	0	0	502	505	0	0	37	0	
15	0	0	0	0	502	505	0	0	37	0	
0	0	0	0	0	498	504	0	0	37	0	
1	0	0	0	0	496	505	0	0	37	0	
2	0	0	0	0	498	505	0	0	37	0	
3	0	0	0	0	512	507	0	0	37	0	
4	0	0	0	0	519	507	0	0	37	0	
5	0	0	0	0	504	508	0	0	37	0	
6	0	0	0	0	497	510	0	0	37	0	
7	0	0	0	0	509	510	0	0	37	0	
8	0	0	0	0	517	508	0	0	37	0	
9	0	0	0	0	502	508	0	0	37	0	
10	0	0	0	0	483	508	0	0	37	0	
11	0	0	0	0	458	508	0	0	37	0	
12	0	0	0	0	438	507	0	0	37	0	
13	0	0	0	0	429	507	0	0	37	0	
14	0	0	0	0	449	507	0	0	37	0	
15	0	0	0	0	460	505	0	0	37	0	
0	0	0	0	0	441	506	0	0	37	0	
1	0	0	0	0	463	506	0	0	37	0	
2	0	0	0	0	512	506	0	0	37	0	
3	0	0	0	0	552	505	0	0	37	0	
4	0	0	0	0	571	505	0	0	37	0	
5	0	0	0	0	575	506	0	0	37	0	
6	0	0	0	0	596	507	0	0	37	0	
7	0	0	0	0	604	508	0	0	37	0	
8	0	0	0	0	590	507	0	0	37	0	
9	0	0	0	0	574	505	0	0	37	0	
10	0	0	0	0	574	506	0	0	37	0	
11	0	0	0	0	553	505	0	0	37	0	
12	0	0	0	0	513	508	0	0	37	0	
13	0	0	0	0	485	508	0	0	37	0	
14	0	0	0	0	475	507	0	0	37	0	
15	0	0	0	0	484	505	0	0	37	0	
0	0	0	0	0	480	507	0	0	37	0	
1	0	0	0	0	461	505	0	0	37	0	
2	0	0	0	0	442	507	0	0	37	0	
3	0	0	0	0	429	507	0	0	37	0	
4	0	0	0	0	455	507	0	0	37	0	
5	0	0	0	0	500	507	0	0	37	0	
6	0	0	0	0	520	508	0	0	37	0	
7	0	0	0	0	540	509	0	0	37	0	
8	0	0	0	0	539	510	0	0	37	0	
9	0	0	0	0	525	509	0	0	37	0	
10	0	0	0	0	515	509	0	0	37	0	
11	0	0	0	0	503	509	0	0	37	0	
12	0	0	0	0	482	509	0	0	37	0	
13	0	0	0	0	470	509	0	0	37	0	
14	0	0	0	0	472	507	0	0	37	0	
15	0	0	0	0	485	508	0	0	37	0	
0	0	0	0	0	478	508	0	0	37	0	
1	0	0	0	0	478	510	0	0	37	0	
2	0	0	0	0	488	510	0	0	36	0	
3	0	0	0	0	514	511	0	0	37	0	
4	0	0	0	0	532	509	0	0	37	0	
5	0	0	0	0	540	509	0	0	37	0	
6	0	0	0	0	542	508	0	0	37	0	
7	0	0	0	0	536	508	0	0	37	0	
8	0	0	0	0	542	508	0	189	37	0	
9	0	0	0	0	552	508	0	239	37	0	
10	0	0	0	0	553	508	0	280	36	0	
11	0	0	0	0	539	508	0	367	37	0	
12	0	0	0	0	513	506	0	491	37	0	
13	0	0	0	0	494	506	0	605	37	0	
14	0	0	0	0	463	507	0	698	37	0	
15	0	0	0	0	444	507	0	601	37	0	
0	0	0	0	0	449	507	0	532	37	0	
1	0	0	0	0	473	507	0	344	37	0	
2	0	0	0	0	504	507	0	42	36	0	
3	0	0	0	0	527	507	0	0	37	0	
4	0	0	0	0	527	506	0	0	37	0	
5	0	0	0	0	534	507	0	0	37	0	
6	0	0	0	0	529	507	0	0	37	0	
7	0	0	0	0	523	507	0	0	37	0	
8	0	0	0	0	518	507	0	0	37	0	
9	0	0	0	0	527	507	0	0	37	0	
10	0	0	0	0	546	506	0	0	37	0	
11	0	0	0	0	560	505	0	0	37	0	
12	0	0	0	0	551	505	0	0	37	0	
13	0	0	0	0	553	506	0	0	37	0	
14	0	0	0	0	564	507	0	0	37	0	
15	0	0	0	0	563	505	0	0	37	0	
0	0	0	0	0	564	505	0	0	37	0	
1	0	0	0	0	560	504	0	0	37	0	
2	0	0	0	0	542	505	0	0	37	0	
3	0	0	0	0	516	506	0	0	37	0	
4	0	0	0	0	499	506	0	0	37	0	
5	0	0	0	0	462	506	0	0	37	0	
6	0	0	0	0	436	508	0	0	38	0	
7	0	0	0	0	436	506	0	0	37	0	
8	0	0	0	0	442	505	0	0	37	0	
9	0	0	0	0	460	504	0	0	37	0	
10	0	0	0	0	469	504	0	0	37	0	
11	0	0	0	0	466	504	0	0	37	0	
12	0	0	0	0	475	504	0	0	37	0	
13	0	0	0	0	491	503	0	0	37	0	
14	0	0	0	0	474	504	0	0	38	0	
15	0	0	0	0	434	505	0	0	37	0	
0	0	0	0	0	401	506	0	0	37	0	
1	0	0	0	0	424	506	0	0	37	0	
2	0	0	0	0	480	505	0	0	37	0	
3	0	0	0	0	547	505	0	0	37	0	
4	0	0	0	0	584	504	0	0	37	0	
5	0	0	0	0	571	507	0	0	37	0	
6	0	0	0	0	547	506	0	0	38	0	
7	0	0	0	0	535	506	0	0	37	0	
8	0	0	0	0	540	505	0	0	37	0	
9	0	0	0	0	554	505	0	0	37	0	
10	0	0	0	0	562	505	0	0	37	0	
11	0	0	0	0	557	505	0	0	37	0	
12	0	0	0	0	522	506	0	0	37	0	
13	0	0	0	0	516	505	0	0	37	0	
14	0	0	0	0	526	507	0	0	38	0	
15	0	0	0	0	532	508	0	0	37	0	
0	0	0	0	0	543	508	0	0	37	0	
1	0	0	0	0	544	508	0	0	37	0	
2	0	0	0	0	529	508	0	0	37	0	
3	0	0	0	0	516	509	0	0	37	0	
4	0	0	0	0	496	510	0	0	37	0	
5	0	0	0	0	471	509	0	0	37	0	
6	0	0	0	0	455	509	0	0	38	0	
7	0	0	0	0	446	508	0	0	37	0	
8	0	0	0	0	432	506	0	0	37	0	
9	0	0	0	0	449	505	0	0	37	0	
10	0	0	0	0	470	507	0	0	37	0	
11	0	0	0	0	491	508	0	0	37	0	
12	0	0	0	0	513	508	0	0	37	0	
13	0	0	0	0	524	508	0	0	37	0	
14	0	0	0	0	527	508	0	0	37	0	
15	0	0	0	0	529	508	0	0	37	0	
0	0	0	0	0	527	509	0	0	37	0	
1	0	0	0	0	523	509	0	0	37	0	
2	0	0	0	0	524	507	0	0	37	0	
3	0	0	0	0	527	509	0	0	37	0	
4	0	0	0	0	518	509	0	0	37	0	
5	0	0	0	0	517	508	0	0	37	0	
6	0	0	0	0	512	507	0	0	37	0	
7	0	0	0	0	515	507	0	0	37	0	
8	0	0	0	0	533	507	0	0	37	0	
9	0	0	0	0	552	508	0	0	37	0	
10	0	0	0	0	564	508	0	0	37	0	
11	0	0	0	0	566	508	0	0	37	0	
12	0	0	0	0	560	508	0	0	37	0	
13	0	0	0	0	544	508	0	0	37	0	
14	0	0	0	0	504	508	0	0	37	0	
15	0	0	0	0	460	508	0	0	37	0	
0	0	0	0	0	428	508	0	0	37	0	
1	0	0	0	0	424	508	0	0	37	0	
2	0	0	0	0	433	511	0	0	37	0	
3	0	0	0	0	446	511	0	0	37	0	
4	0	0	0	0	439	511	0	0	37	0	
5	0	0	0	0	436	509	0	0	37	0	
6	0	0	0	0	451	509	0	0	37	0	
7	0	0	0	0	484	507	0	0	37	0	
8	0	0	0	0	523	507	0	0	37	0	
9	0	0	0	0	555	507	0	0	37	0	
10	0	0	0	0	579	509	0	0	37	0	
11	0	0	0	0	594	510	0	0	37	0	
12	0	0	0	0	602	510	0	0	37	0	
13	0	0	0	0	604	508	0	0	37	0	
14	0	0	0	0	588	509	0	0	37	0	
15	0	0	0	0	564	510	0	0	37	0	
0	0	0	0	0	558	511	0	0	37	0	
1	0	0	0	0	543	510	0	0	37	0	
2	0	0	0	0	534	512	0	0	37	0	
3	0	0	0	0	524	512	0	0	37	0	
4	0	0	0	0	523	511	0	0	37	0	
5	0	0	0	0	546	511	0	0	37	0	
6	0	0	0	0	519	510	0	0	37	0	
7	0	0	0	0	462	508	0	0	37	0	
8	0	0	0	0	367	509	0	0	37	0	
9	0	0	0	0	362	510	0	411	37	0	
10	0	0	0	0	440	510	0	709	37	0	
11	0	0	0	0	490	509	0	972	37	0	
12	0	0	0	0	494	509	0	1018	37	0	
13	0	0	0	0	481	510	0	1018	37	0	
14	0	0	0	0	463	509	0	1018	38	0	
15	0	0	0	0	451	508	0	1018	37	0	
0	0	0	0	0	457	506	0	1018	37	0	
1	0	0	0	0	482	505	0	1018	37	0	
2	0	0	0	0	496	505	0	1018	37	0	
3	0	0	0	0	521	505	0	1018	37	0	
4	0	0	0	0	537	506	0	1018	37	0	
5	0	0	0	0	565	507	0	1018	37	0	
6	0	0	0	0	593	509	0	1018	37	0	
7	0	0	0	0	601	509	0	1018	37	0	
8	0	0	0	0	600	509	0	1018	37	0	
9	0	0	0	0	586	508	0	1018	37	0	
10	0	0	0	0	560	509	0	1018	37	0	
11	0	0	0	0	531	509	0	1018	37	0	
12	0	0	0	0	487	509	0	1018	37	0	
13	0	0	0	0	452	506	0	591	37	0	
14	0	0	0	0	444	504	0	263	37	0	
15	0	0	0	0	467	507	0	0	37	0	
0	0	0	0	0	487	509	0	0	37	0	
1	0	0	0	0	501	510	0	0	37	0	
2	0	0	0	0	510	508	0	0	37	0	
3	0	0	0	0	507	508	0	0	37	0	
4	0	0	0	0	496	509	0	0	37	0	
5	0	0	0	0	479	510	0	0	37	0	
6	0	0	0	0	458	510	0	0	37	0	
7	0	0	0	0	456	509	0	0	37	0	
8	0	0	0	0	473	508	0	0	37	0	
9	0	0	0	0	480	509	0	0	37	0	
10	0	0	0	0	488	508	0	0	37	0	
11	0	0	0	0	492	508	0	0	37	0	
12	0	0	0	0	510	508	0	0	37	0	
13	0	0	0	0	534	508	0	0	37	0	
14	0	0	0	0	551	508	0	0	37	0	
15	0	0	0	0	559	507	0	0	37	0	
0	0	0	0	0	541	507	0	0	37	0	
1	0	0	0	0	550	507	0	0	37	0	
2	0	0	0	0	558	505	0	0	37	0	
3	0	0	0	0	548	507	0	0	37	0	
4	0	0	0	0	534	507	0	0	37	0	
5	0	0	0	0	519	507	0	0	37	0	
6	0	0	0	0	524	507	0	0	37	0	
7	0	0	0	0	529	508	0	0	37	0	
8	0	0	0	0	528	507	0	0	37	0	
9	0	0	0	0	513	509	0	0	37	0	
10	0	0	0	0	497	509	0	0	37	0	
11	0	0	0	0	487	508	0	0	37	0	
12	0	0	0	0	469	508	0	0	37	0	
13	0	0	0	0	469	507	0	0	37	0	
14	0	0	0	0	476	507	0	0	37	0	
15	0	0	0	0	449	507	0	0	37	0	
0	0	0	0	0	437	509	0	0	37	0	
1	0	0	0	0	436	509	0	0	37	0	
2	0	0	0	0	466	509	0	0	37	0	
3	0	0	0	0	495	507	0	0	37	0	
4	0	0	0	0	513	508	0	0	37	0	
5	0	0	0	0	542	508	0	0	37	0	
6	0	0	0	0	575	507	0	0	37	0	
7	0	0	0	0	612	506	0	0	37	0	
8	0	0	0	0	626	508	0	0	37	0	
9	0	0	0	0	632	508	0	0	37	0	
10	0	0	0	0	631	509	0	0	37	0	
11	0	0	0	0	600	508	0	0	37	0	
12	0	0	0	0	560	508	0	0	37	0	
13	0	0	0	0	509	507	0	0	37	0	
14	0	0	0	0	464	508	0	0	37	0	
15	0	0	0	0	440	511	0	0	37	0	
0	0	0	0	0	406	510	0	0	37	0	
1	0	0	0	0	397	510	0	0	37	0	
2	0	0	0	0	424	508	0	0	37	0	
3	0	0	0	0	460	507	0	0	37	0	
4	0	0	0	0	476	505	0	0	37	0	
5	0	0	0	0	494	505	0	0	37	0	
6	0	0	0	0	510	505	0	0	38	0	
7	0	0	0	0	513	506	0	0	37	0	
8	0	0	0	0	518	506	0	0	37	0	
9	0	0	0	0	523	506	0	0	37	0	
10	0	0	0	0	517	505	0	0	37	0	
11	0	0	0	0	497	506	0	0	37	0	
12	0	0	0	0	495	507	0	0	37	0	
13	0	0	0	0	490	508	0	0	37	0	
14	0	0	0	0	460	506	0	0	38	0	
15	0	0	0	0	451	507	0	0	37	0	
0	0	0	0	0	472	508	0	0	37	0	
1	0	0	0	0	498	508	0	0	37	0	
2	0	0	0	0	503	508	0	0	37	0	
3	0	0	0	0	509	507	0	0	37	0	
4	0	0	0	0	541	506	0	0	37	0	
5	0	0	0	0	569	505	0	0	37	0	
6	0	0	0	0	587	506	0	0	38	0	
7	0	0	0	0	590	507	0	0	37	0	
8	0	0	0	0	583	508	0	0	37	0	
9	0	0	0	0	569	507	0	0	37	0	
10	0	0	0	0	543	507	0	0	37	0	
11	0	0	0	0	519	508	0	0	37	0	
12	0	0	0	0	509	507	0	0	37	0	
13	0	0	0	0	509	506	0	0	37	0	
14	0	0	0	0	503	506	0	0	38	0	
15	0	0	0	0	484	507	0	0	37	0	
0	0	0	0	0	457	507	0	0	37	0	
1	0	0	0	0	428	508	0	0	37	0	
2	0	0	0	0	409	508	0	0	37	0	
3	0	0	0	0	419	508	0	0	37	0	
4	0	0	0	0	446	507	0	199	37	0	
5	0	0	0	0	480	505	0	350	37	0	
6	0	0	0	0	487	505	0	471	37	0	
7	0	0	0	0	498	505	0	674	37	0	
8	0	0	0	0	510	507	0	871	37	0	
9	0	0	0	0	547	510	0	1017	37	0	
10	0	0	0	0	579	511	0	1018	37	0	
11	0	0	0	0	588	511	0	1018	37	0	
12	0	0	0	0	580	509	0	1018	37	0	
13	0	0	0	0	570	508	0	1018	37	0	
14	0	0	0	0	569	508	0	1018	37	0	
15	0	0	0	0	561	508	0	1018	37	0	
0	0	0	0	0	549	508	0	1018	37	0	
1	0	0	0	0	529	508	0	1018	37	0	
2	0	0	0	0	504	507	0	1018	37	0	
3	0	0	0	0	482	508	0	1018	37	0	
4	0	0	0	0	462	506	0	1018	37	0	
5	0	0	0	0	436	508	0	1018	37	0	
6	0	0	0	0	439	509	0	1018	38	0	
7	0	0	0	0	463	509	0	1018	37	0	
8	0	0	0	0	487	508	0	1018	37	0	
9	0	0	0	0	505	509	0	1018	37	0	
10	0	0	0	0	512	510	0	1018	37	0	
11	0	0	0	0	532	509	0	1018	37	0	
12	0	0	0	0	559	507	0	1018	37	0	
13	0	0	0	0	560	508	0	1018	37	0	
14	0	0	0	0	551	508	0	1018	38	0	
15	0	0	0	0	526	509	0	1018	37	0	
0	0	0	0	0	520	510	0	1018	37	0	
1	0	0	0	0	500	509	0	1018	37	0	
2	0	0	0	0	497	509	0	1018	37	0	
3	0	0	0	0	471	507	0	1018	37	0	
4	0	0	0	0	459	507	0	1018	37	0	
5	0	0	0	0	463	508	0	1018	37	0	
6	0	0	0	0	473	505	0	1018	38	0	
7	0	0	0	0	481	504	0	1018	37	0	
8	0	0	0	0	501	504	0	1018	37	0	
9	0	0	0	0	512	505	0	1018	37	0	
10	0	0	0	0	526	507	0	1018	37	0	
11	0	0	0	0	547	507	0	1018	37	0	
12	0	0	0	0	556	509	0	1018	37	0	
13	0	0	0	0	563	509	0	1018	37	0	
14	0	0	0	0	586	510	0	1018	38	0	
15	0	0	0	0	579	509	0	1018	37	0	
0	0	0	0	0	553	510	0	1018	37	0	
1	0	0	0	0	498	510	0	1018	37	0	
2	0	0	0	0	445	510	0	1018	37	0	
3	0	0	0	0	447	508	0	1018	37	0	
4	0	0	0	0	468	507	0	1018	37	0	
5	0	0	0	0	471	507	0	1018	37	0	
6	0	0	0	0	503	507	0	1018	38	0	
7	0	0	0	0	531	507	0	1018	37	0	
8	0	0	0	0	528	508	0	1018	37	0	
9	0	0	0	0	520	509	0	1018	37	0	
10	0	0	0	0	505	507	0	1018	37	0	
11	0	0	0	0	497	508	0	1018	37	0	
12	0	0	0	0	496	509	0	1018	37	0	
13	0	0	0	0	466	507	0	1018	37	0	
14	0	0	0	0	440	508	0	1018	38	0	
15	0	0	0	0	428	508	0	1018	37	0	
0	0	0	0	0	442	510	0	1018	37	0	
1	0	0	0	0	495	509	0	1018	37	0	
2	0	0	0	0	525	508	0	1018	37	0	
3	0	0	0	0	524	510	0	1018	37	0	
4	0	0	0	0	517	510	0	1018	37	0	
5	0	0	0	0	506	508	0	1018	37	0	
6	0	0	0	0	502	509	0	1018	38	0	
7	0	0	0	0	499	509	0	1018	37	0	
8	0	0	0	0	518	510	0	1018	37	0	
9	0	0	0	0	542	511	0	1018	37	0	
10	0	0	0	0	556	511	0	1018	37	0	
11	0	0	0	0	557	511	0	1018	37	0	
12	0	0	0	0	557	510	0	1018	37	0	
13	0	0	0	0	577	510	0	1018	37	0	
14	0	0	0	0	582	508	0	1018	37	0	
15	0	0	0	0	576	508	0	1018	37	0	
0	0	0	0	0	564	507	0	1018	37	0	
1	0	0	0	0	525	508	0	1018	37	0	
2	0	0	0	0	505	509	0	1018	37	0	
3	0	0	0	0	496	508	0	1018	37	0	
4	0	0	0	0	481	511	0	1018	37	0	
5	0	0	0	0	458	512	0	1018	37	0	
6	0	0	0	0	433	511	0	1018	37	0	
7	0	0	0	0	444	511	0	1018	37	0	
8	0	0	0	0	466	512	0	1018	37	0	
9	0	0	0	0	488	512	0	1018	37	0	
10	0	0	0	0	499	512	0	1018	37	0	
11	0	0	0	0	503	511	0	1018	37	0	
12	0	0	0	0	511	509	0	839	37	0	
13	0	0	0	0	524	507	0	575	37	0	
14	0	0	0	0	535	507	0	346	37	0	
15	0	0	0	0	543	507	0	153	37	0	
0	0	0	0	0	542	508	0	17	37	0	
1	0	0	0	0	529	510	0	19	37	0	
2	0	0	0	0	511	508	0	0	37	0	
3	0	0	0	0	502	508	0	0	37	0	
4	0	0	0	0	504	509	0	0	37	0	
5	0	0	0	0	509	510	0	0	37	0	
6	0	0	0	0	511	509	0	0	37	0	
7	0	0	0	0	502	508	0	0	37	0	
8	0	0	0	0	497	509	0	0	37	0	
9	0	0	0	0	496	509	0	0	37	0	
10	0	0	0	0	489	508	0	0	37	0	
11	0	0	0	0	487	508	0	0	37	0	
12	0	0	0	0	489	507	0	0	37	0	
13	0	0	0	0	497	505	0	0	37	0	
14	0	0	0	0	520	504	0	0	37	0	
15	0	0	0	0	532	504	0	0	37	0	
0	0	0	0	0	536	507	0	0	37	0	
1	0	0	0	0	539	507	0	238	37	0	
2	0	0	0	0	527	505	0	425	37	0	
3	0	0	0	0	508	505	0	448	37	0	
4	0	0	0	0	495	507	0	393	37	0	
5	0	0	0	0	498	508	0	306	37	0	
6	0	0	0	0	503	505	0	168	37	0	
7	0	0	0	0	512	506	0	0	37	0	
8	0	0	0	0	519	507	0	0	37	0	
9	0	0	0	0	492	508	0	0	37	0	
10	0	0	0	0	452	507	0	0	37	0	
11	0	0	0	0	462	506	0	0	37	0	
12	0	0	0	0	485	504	0	0	37	0	
13	0	0	0	0	511	504	0	0	37	0	
14	0	0	0	0	546	505	0	0	37	0	
15	0	0	0	0	552	506	0	0	37	0	
0	0	0	0	0	519	504	0	287	37	0	
1	0	0	0	0	508	505	0	636	37	0	
2	0	0	0	0	500	505	0	913	37	0	
3	0	0	0	0	497	508	0	1017	37	0	
4	0	0	0	0	495	507	0	1018	37	0	
5	0	0	0	0	508	505	0	1018	37	0	
6	0	0	0	0	520	507	0	1018	38	0	
7	0	0	0	0	518	508	0	1018	37	0	
8	0	0	0	0	510	508	0	1018	37	0	
9	0	0	0	0	512	508	0	1018	37	0	
10	0	0	0	0	499	506	0	1018	37	0	
11	0	0	0	0	479	507	0	1018	37	0	
12	0	0	0	0	480	507	0	1018	37	0	
13	0	0	0	0	480	506	0	1018	37	0	
14	0	0	0	0	476	505	0	1018	38	0	
15	0	0	0	0	490	504	0	1018	37	0	
0	0	0	0	0	510	504	0	1018	37	0	
1	0	0	0	0	531	505	0	1018	37	0	
2	0	0	0	0	564	505	0	1018	37	0	
3	0	0	0	0	591	505	0	1018	37	0	
4	0	0	0	0	606	505	0	1018	37	0	
5	0	0	0	0	606	504	0	1018	37	0	
6	0	0	0	0	580	506	0	1018	37	0	
7	0	0	0	0	543	507	0	1018	37	0	
8	0	0	0	0	496	507	0	1018	37	0	
9	0	0	0	0	462	505	0	1018	37	0	
10	0	0	0	0	429	508	0	1018	37	0	
11	0	0	0	0	394	507	0	1018	37	0	
12	0	0	0	0	400	507	0	1018	37	0	
13	0	0	0	0	439	508	0	1018	37	0	
14	0	0	0	0	487	508	0	1018	37	0	
15	0	0	0	0	524	507	0	1018	37	0	
0	0	0	0	0	556	507	0	1018	37	0	
1	0	0	0	0	585	505	0	1018	37	0	
2	0	0	0	0	588	507	0	1018	37	0	
3	0	0	0	0	579	507	0	1018	37	0	
4	0	0	0	0	579	507	0	1018	37	0	
5	0	0	0	0	572	510	0	1018	37	0	
6	0	0	0	0	542	510	0	1018	37	0	
7	0	0	0	0	507	510	0	1018	37	0	
8	0	0	0	0	490	508	0	1018	37	0	
9	0	0	0	0	491	510	0	1018	37	0	
10	0	0	0	0	496	510	0	1017	37	0	
11	0	0	0	0	495	508	0	1018	37	0	
12	0	0	0	0	493	509	0	1018	37	0	
13	0	0	0	0	502	507	0	1018	37	0	
14	0	0	0	0	504	509	0	1018	37	0	
15	0	0	0	0	489	509	0	1018	37	0	
0	0	0	0	0	461	509	0	1018	37	0	
1	0	0	0	0	440	509	0	1018	37	0	
2	0	0	0	0	442	508	0	1018	37	0	
3	0	0	0	0	457	509	0	1018	37	0	
4	0	0	0	0	483	508	0	1018	37	0	
5	0	0	0	0	496	508	0	1018	37	0	
6	0	0	0	0	509	508	0	1018	38	0	
7	0	0	0	0	516	508	0	1018	37	0	
8	0	0	0	0	519	508	0	1018	37	0	
9	0	0	0	0	514	506	0	1018	37	0	
10	0	0	0	0	503	507	0	1018	37	0	
11	0	0	0	0	495	505	0	1017	37	0	
12	0	0	0	0	501	504	0	705	37	0	
13	0	0	0	0	502	504	0	371	37	0	
14	0	0	0	0	511	505	0	14	37	0	
15	0	0	0	0	517	506	0	0	37	0	
0	0	0	0	0	529	508	0	0	37	0	
1	0	0	0	0	552	508	0	0	37	0	
2	0	0	0	0	571	507	0	0	37	0	
3	0	0	0	0	591	507	0	0	37	0	
4	0	0	0	0	580	505	0	0	37	0	
5	0	0	0	0	553	505	0	0	37	0	
6	0	0	0	0	512	506	0	0	38	0	
7	0	0	0	0	483	505	0	0	37	0	
8	0	0	0	0	487	504	0	0	37	0	
9	0	0	0	0	484	504	0	0	37	0	
10	0	0	0	0	470	504	0	0	37	0	
11	0	0	0	0	455	504	0	0	37	0	
12	0	0	0	0	465	506	0	0	37	0	
13	0	0	0	0	478	506	0	0	37	0	
14	0	0	0	0	466	507	0	0	37	0	
15	0	0	0	0	465	507	0	0	37	0	
0	0	0	0	0	483	505	0	0	37	0	
1	0	0	0	0	510	504	0	0	37	0	
2	0	0	0	0	516	504	0	0	37	0	
3	0	0	0	0	508	505	0	0	37	0	
4	0	0	0	0	499	506	0	0	37	0	
5	0	0	0	0	489	507	0	0	37	0	
6	0	0	0	0	506	508	0	0	37	0	
7	0	0	0	0	551	510	0	0	37	0	
8	0	0	0	0	571	509	0	0	37	0	
9	0	0	0	0	551	509	0	0	37	0	
10	0	0	0	0	535	509	0	0	37	0	
11	0	0	0	0	535	510	0	0	37	0	
12	0	0	0	0	528	511	0	0	37	0	
13	0	0	0	0	503	511	0	0	37	0	
14	0	0	0	0	498	512	0	0	37	0	
15	0	0	0	0	500	511	0	0	37	0	
0	0	0	0	0	527	510	0	0	37	0	
1	0	0	0	0	525	511	0	0	37	0	
2	0	0	0	0	512	510	0	0	37	0	
3	0	0	0	0	519	508	0	0	37	0	
4	0	0	0	0	527	509	0	0	37	0	
5	0	0	0	0	529	510	0	0	37	0	
6	0	0	0	0	527	510	0	0	37	0	
7	0	0	0	0	541	509	0	0	37	0	
8	0	0	0	0	533	510	0	215	37	0	
9	0	0	0	0	519	508	0	600	37	0	
10	0	0	0	0	488	509	0	948	37	0	
11	0	0	0	0	469	509	0	1018	37	0	
12	0	0	0	0	459	511	0	1018	37	0	
13	0	0	0	0	461	511	0	1018	37	0	
14	0	0	0	0	478	511	0	1018	37	0	
15	0	0	0	0	498	510	0	1018	37	0	
0	0	0	0	0	512	511	0	1018	37	0	
1	0	0	0	0	502	511	0	1018	37	0	
2	0	0	0	0	497	510	0	1017	37	0	
3	0	0	0	0	514	510	0	1017	37	0	
4	0	0	0	0	527	509	0	1018	37	0	
5	0	0	0	0	543	508	0	1018	37	0	
6	0	0	0	0	544	509	0	1018	37	0	
7	0	0	0	0	539	507	0	1018	37	0	
8	0	0	0	0	527	507	0	1018	37	0	
9	0	0	0	0	507	505	0	1018	37	0	
10	0	0	0	0	489	507	0	1018	37	0	
11	0	0	0	0	485	508	0	1018	37	0	
12	0	0	0	0	496	510	0	1018	37	0	
13	0	0	0	0	520	509	0	1018	37	0	
14	0	0	0	0	525	509	0	1018	37	0	
15	0	0	0	0	508	508	0	1018	37	0	
0	0	0	0	0	475	508	0	1018	37	0	
1	0	0	0	0	493	509	0	1017	37	0	
2	0	0	0	0	524	509	0	1017	37	0	
3	0	0	0	0	537	509	0	1017	37	0	
4	0	0	0	0	531	508	0	1018	37	0	
5	0	0	0	0	518	509	0	950	37	0	
6	0	0	0	0	489	508	0	858	37	0	
7	0	0	0	0	485	508	0	753	37	0	
8	0	0	0	0	475	508	0	611	37	0	
9	0	0	0	0	455	507	0	366	37	0	
10	0	0	0	0	457	508	0	188	37	0	
11	0	0	0	0	468	508	0	20	37	0	
12	0	0	0	0	489	508	0	0	37	0	
13	0	0	0	0	508	508	0	0	37	0	
14	0	0	0	0	516	509	0	0	37	0	
15	0	0	0	0	505	508	0	0	37	0	
0	0	0	0	0	503	509	0	0	37	0	
1	0	0	0	0	520	508	0	126	37	0	
2	0	0	0	0	526	506	0	238	37	0	
3	0	0	0	0	543	506	0	204	37	0	
4	0	0	0	0	576	507	0	182	37	0	
5	0	0	0	0	572	505	0	206	37	0	
6	0	0	0	0	537	504	0	290	37	0	
7	0	0	0	0	524	505	0	472	37	0	
8	0	0	0	0	527	504	0	735	37	0	
9	0	0	0	0	523	505	0	799	37	0	
10	0	0	0	0	514	505	0	819	37	0	
11	0	0	0	0	527	506	0	844	37	0	
12	0	0	0	0	541	506	0	911	37	0	
13	0	0	0	0	540	507	0	1018	37	0	
14	0	0	0	0	538	507	0	1018	37	0	
15	0	0	0	0	529	507	0	1018	37	0	
0	0	0	0	0	504	507	0	1018	37	0	
1	0	0	0	0	460	508	0	1018	37	0	
2	0	0	0	0	416	507	0	1018	37	0	
3	0	0	0	0	409	507	0	1018	37	0	
4	0	0	0	0	428	507	0	1018	37	0	
5	0	0	0	0	432	507	0	1018	37	0	
6	0	0	0	0	433	509	0	1018	37	0	
7	0	0	0	0	458	508	0	1018	37	0	
8	0	0	0	0	499	508	0	1018	37	0	
9	0	0	0	0	536	506	0	1018	37	0	
10	0	0	0	0	569	506	0	1018	37	0	
11	0	0	0	0	604	508	0	1018	37	0	
12	0	0	0	0	603	508	0	1018	37	0	
13	0	0	0	0	581	508	0	1018	37	0	
14	0	0	0	0	564	509	0	1017	37	0	
15	0	0	0	0	552	510	0	661	37	0	
0	0	0	0	0	534	510	0	140	37	0	
1	0	0	0	0	514	510	0	0	37	0	
2	0	0	0	0	497	509	0	0	37	0	
3	0	0	0	0	496	509	0	0	37	0	
4	0	0	0	0	479	509	0	0	37	0	
5	0	0	0	0	478	510	0	0	37	0	
6	0	0	0	0	483	509	0	0	37	0	
7	0	0	0	0	489	511	0	0	37	0	
8	0	0	0	0	482	511	0	0	37	0	
9	0	0	0	0	460	510	0	0	37	0	
10	0	0	0	0	458	510	0	0	37	0	
11	0	0	0	0	474	510	0	0	37	0	
12	0	0	0	0	499	511	0	0	37	0	
13	0	0	0	0	538	509	0	0	37	0	
14	0	0	0	0	562	507	0	138	37	0	
15	0	0	0	0	568	509	0	339	37	0	
0	0	0	0	0	574	508	0	604	37	0	
1	0	0	0	0	573	510	0	871	37	0	
2	0	0	0	0	547	513	0	1017	37	0	
3	0	0	0	0	489	512	0	1018	37	0	
4	0	0	0	0	427	511	0	1018	37	0	
5	0	0	0	0	414	511	0	1018	37	0	
6	0	0	0	0	447	512	0	1018	37	0	
7	0	0	0	0	503	511	0	1018	37	0	
8	0	0	0	0	521	509	0	1018	37	0	
9	0	0	0	0	539	511	0	1018	37	0	
10	0	0	0	0	560	512	0	1018	37	0	
11	0	0	0	0	569	511	0	1018	37	0	
12	0	0	0	0	548	510	0	1018	37	0	
13	0	0	0	0	535	509	0	1018	37	0	
14	0	0	0	0	512	508	0	1018	38	0	
15	0	0	0	0	498	508	0	1018	37	0	
0	0	0	0	0	494	508	0	1018	37	0	
1	0	0	0	0	500	510	0	1018	37	0	
2	0	0	0	0	504	510	0	1018	37	0	
3	0	0	0	0	497	510	0	1018	37	0	
4	0	0	0	0	472	507	0	1018	37	0	
5	0	0	0	0	455	507	0	1018	37	0	
6	0	0	0	0	439	507	0	1018	38	0	
7	0	0	0	0	448	507	0	1018	37	0	
8	0	0	0	0	500	507	0	1018	37	0	
9	0	0	0	0	526	506	0	1018	37	0	
10	0	0	0	0	524	508	0	858	37	0	
11	0	0	0	0	513	508	0	824	37	0	
12	0	0	0	0	508	509	0	851	37	0	
13	0	0	0	0	523	508	0	926	37	0	
14	0	0	0	0	534	509	0	849	38	0	
15	0	0	0	0	535	509	0	800	37	0	
0	0	0	0	0	531	508	0	954	37	0	
1	0	0	0	0	525	508	0	1018	37	0	
2	0	0	0	0	533	508	0	1018	37	0	
3	0	0	0	0	543	508	0	1018	37	0	
4	0	0	0	0	542	509	0	1018	37	0	
5	0	0	0	0	524	510	0	1018	37	0	
6	0	0	0	0	514	510	0	1018	38	0	
7	0	0	0	0	503	511	0	1018	37	0	
8	0	0	0	0	490	511	0	1018	37	0	
9	0	0	0	0	494	512	0	1018	37	0	
10	0	0	0	0	491	513	0	1018	37	0	
11	0	0	0	0	461	512	0	1018	37	0	
12	0	0	0	0	467	513	0	1018	37	0	
13	0	0	0	0	507	513	0	1018	37	0	
