# OpenSignals Text File Format. Version 1
# {"98:D3:71:FD:62:12": {"position": 0, "device": "bitalino_rev", "device name": "98:D3:71:FD:62:12", "device connection": "BTH98:D3:71:FD:62:12", "sampling rate": 1000, "resolution": [4, 1, 1, 1, 1, 10, 10, 10, 10, 6, 6], "firmware version": 1282, "comments": "", "keywords": "", "mode": 0, "sync interval": 2, "date": "2024-4-19", "time": "10:0:19.193", "channels": [1, 2, 3, 4, 5, 6], "sensor": ["RAW", "RAW", "RAW", "RAW", "RAW", "RAW"], "label": ["A1", "A2", "A3", "A4", "A5", "A6"], "column": ["nSeq", "I1", "I2", "O1", "O2", "A1", "A2", "A3", "A4", "A5", "A6"], "special": [{}, {}, {}, {}, {}, {}], "digital IO": [0, 0, 1, 1], "convertedValues": 0}}
# EndOfHeader
0	0	0	0	0	508	536	0	547	39	25	
1	0	0	0	0	503	532	0	546	39	22	
2	0	0	0	0	505	528	0	545	39	21	
3	0	0	0	0	505	531	0	545	39	23	
4	0	0	0	0	504	529	0	545	39	25	
5	0	0	0	0	507	525	0	546	39	27	
6	0	0	0	0	509	529	0	547	39	28	
7	0	0	0	0	506	534	0	547	39	28	
8	0	0	0	0	504	537	0	544	39	26	
9	0	0	0	0	519	543	0	540	39	23	
10	0	0	0	0	512	545	0	542	39	21	
11	0	0	0	0	507	546	0	545	39	22	
12	0	0	0	0	509	546	0	549	39	25	
13	0	0	0	0	503	545	0	551	39	27	
14	0	0	0	0	510	547	0	551	39	28	
15	0	0	0	0	505	553	0	552	39	28	
0	0	0	0	0	507	553	0	549	39	26	
1	0	0	0	0	512	544	0	544	39	24	
2	0	0	0	0	508	532	0	543	39	21	
3	0	0	0	0	511	529	0	543	39	22	
4	0	0	0	0	503	536	0	554	39	24	
5	0	0	0	0	508	542	0	579	39	26	
6	0	0	0	0	511	540	0	602	39	28	
7	0	0	0	0	507	531	0	609	39	28	
8	0	0	0	0	512	527	0	612	39	27	
9	0	0	0	0	508	531	0	618	39	25	
10	0	0	0	0	508	527	0	610	39	22	
11	0	0	0	0	506	525	0	595	39	21	
12	0	0	0	0	509	527	0	581	39	23	
13	0	0	0	0	501	527	0	570	39	25	
14	0	0	0	0	506	525	0	562	39	27	
15	0	0	0	0	506	525	0	558	39	28	
0	0	0	0	0	507	524	0	551	39	28	
1	0	0	0	0	503	516	0	545	39	26	
2	0	0	0	0	512	516	0	544	39	23	
3	0	0	0	0	515	517	0	545	39	21	
4	0	0	0	0	505	518	0	546	39	22	
5	0	0	0	0	504	523	0	548	39	24	
6	0	0	0	0	515	522	0	548	39	27	
7	0	0	0	0	506	513	0	547	39	28	
8	0	0	0	0	505	504	0	545	39	28	
9	0	0	0	0	507	501	0	541	39	26	
10	0	0	0	0	513	499	0	540	39	24	
11	0	0	0	0	510	504	0	543	39	21	
12	0	0	0	0	515	504	0	547	39	22	
13	0	0	0	0	499	499	0	548	39	24	
14	0	0	0	0	501	495	0	550	39	26	
15	0	0	0	0	506	488	0	547	39	28	
0	0	0	0	0	506	480	0	545	39	28	
1	0	0	0	0	506	480	0	557	39	27	
2	0	0	0	0	513	477	0	583	39	25	
3	0	0	0	0	507	475	0	591	39	22	
4	0	0	0	0	505	476	0	588	39	21	
5	0	0	0	0	510	473	0	581	39	23	
6	0	0	0	0	513	466	0	573	39	25	
7	0	0	0	0	508	464	0	578	39	27	
8	0	0	0	0	505	472	0	594	39	28	
9	0	0	0	0	512	473	0	599	39	28	
10	0	0	0	0	507	471	0	612	39	26	
11	0	0	0	0	507	472	0	627	39	23	
12	0	0	0	0	504	468	0	630	39	21	
13	0	0	0	0	502	463	0	644	39	22	
14	0	0	0	0	515	460	0	639	39	24	
15	0	0	0	0	510	460	0	640	39	27	
0	0	0	0	0	513	461	0	646	39	28	
1	0	0	0	0	513	456	0	642	39	28	
2	0	0	0	0	510	451	0	657	39	26	
3	0	0	0	0	508	453	0	640	39	24	
4	0	0	0	0	512	456	0	640	39	21	
5	0	0	0	0	502	456	0	640	39	22	
6	0	0	0	0	509	457	0	632	39	24	
7	0	0	0	0	504	453	0	636	39	26	
8	0	0	0	0	508	449	0	624	39	28	
9	0	0	0	0	499	451	0	624	39	28	
10	0	0	0	0	508	454	0	629	39	27	
11	0	0	0	0	514	456	0	627	39	25	
12	0	0	0	0	512	451	0	619	39	22	
13	0	0	0	0	506	445	0	604	39	21	
14	0	0	0	0	508	444	0	590	39	23	
15	0	0	0	0	507	444	0	576	39	25	
0	0	0	0	0	504	443	0	568	39	27	
1	0	0	0	0	503	440	0	561	39	28	
2	0	0	0	0	512	436	0	556	39	28	
3	0	0	0	0	510	435	0	551	39	26	
4	0	0	0	0	510	430	0	550	39	23	
5	0	0	0	0	510	429	0	556	39	21	
6	0	0	0	0	505	435	0	579	39	22	
7	0	0	0	0	514	447	0	582	39	24	
8	0	0	0	0	508	456	0	571	39	27	
9	0	0	0	0	510	454	0	559	39	28	
10	0	0	0	0	507	452	0	559	39	28	
11	0	0	0	0	507	447	0	580	39	26	
12	0	0	0	0	510	442	0	590	39	24	
13	0	0	0	0	509	439	0	584	39	21	
14	0	0	0	0	507	438	0	589	39	21	
15	0	0	0	0	504	442	0	600	39	24	
0	0	0	0	0	503	447	0	593	39	26	
1	0	0	0	0	505	447	0	583	39	28	
2	0	0	0	0	512	446	0	580	39	28	
3	0	0	0	0	504	448	0	575	39	27	
4	0	0	0	0	508	456	0	564	39	25	
5	0	0	0	0	503	467	0	556	39	22	
6	0	0	0	0	511	472	0	548	39	21	
7	0	0	0	0	508	461	0	545	39	23	
8	0	0	0	0	511	446	0	542	39	25	
9	0	0	0	0	511	439	0	547	39	27	
10	0	0	0	0	508	439	0	571	39	28	
11	0	0	0	0	506	446	0	580	39	28	
12	0	0	0	0	505	448	0	575	39	26	
13	0	0	0	0	514	440	0	566	39	23	
14	0	0	0	0	509	435	0	559	39	21	
15	0	0	0	0	504	434	0	553	39	22	
0	0	0	0	0	508	435	0	568	39	24	
1	0	0	0	0	510	438	0	575	39	27	
2	0	0	0	0	502	443	0	570	39	28	
3	0	0	0	0	503	451	0	562	39	28	
4	0	0	0	0	502	453	0	554	39	26	
5	0	0	0	0	508	454	0	548	39	24	
6	0	0	0	0	511	456	0	559	39	21	
7	0	0	0	0	510	451	0	543	39	21	
8	0	0	0	0	513	446	0	543	39	24	
9	0	0	0	0	509	444	0	563	39	26	
10	0	0	0	0	507	446	0	569	39	28	
11	0	0	0	0	504	449	0	563	39	28	
12	0	0	0	0	507	452	0	557	39	27	
13	0	0	0	0	512	453	0	550	39	25	
14	0	0	0	0	514	452	0	544	39	22	
15	0	0	0	0	503	451	0	540	39	21	
0	0	0	0	0	504	456	0	534	39	23	
1	0	0	0	0	511	462	0	542	39	25	
2	0	0	0	0	509	463	0	564	39	27	
3	0	0	0	0	510	464	0	568	39	28	
4	0	0	0	0	510	465	0	563	39	28	
5	0	0	0	0	512	458	0	564	39	26	
6	0	0	0	0	507	455	0	560	39	23	
7	0	0	0	0	499	458	0	559	39	21	
8	0	0	0	0	504	461	0	576	39	22	
9	0	0	0	0	508	463	0	580	39	24	
10	0	0	0	0	516	459	0	590	39	26	
11	0	0	0	0	504	446	0	600	39	28	
12	0	0	0	0	504	443	0	590	39	28	
13	0	0	0	0	508	455	0	577	39	26	
14	0	0	0	0	505	467	0	585	39	24	
15	0	0	0	0	511	466	0	581	39	21	
0	0	0	0	0	511	457	0	566	39	21	
1	0	0	0	0	507	456	0	551	39	24	
2	0	0	0	0	516	456	0	539	39	26	
3	0	0	0	0	508	459	0	529	39	28	
4	0	0	0	0	511	460	0	523	39	28	
5	0	0	0	0	504	463	0	518	39	27	
6	0	0	0	0	506	463	0	520	39	25	
7	0	0	0	0	512	461	0	534	39	22	
8	0	0	0	0	509	460	0	532	39	21	
9	0	0	0	0	507	462	0	534	39	23	
10	0	0	0	0	503	465	0	555	39	25	
11	0	0	0	0	509	467	0	560	39	27	
12	0	0	0	0	502	469	0	555	39	28	
13	0	0	0	0	504	471	0	544	39	28	
14	0	0	0	0	506	472	0	535	39	26	
15	0	0	0	0	508	472	0	539	39	23	
0	0	0	0	0	509	472	0	553	39	21	
1	0	0	0	0	508	476	0	549	39	22	
2	0	0	0	0	506	476	0	543	39	24	
3	0	0	0	0	512	473	0	545	39	26	
4	0	0	0	0	503	477	0	542	39	28	
5	0	0	0	0	515	482	0	536	39	28	
6	0	0	0	0	509	479	0	531	39	26	
7	0	0	0	0	504	479	0	524	39	24	
8	0	0	0	0	519	477	0	520	39	21	
9	0	0	0	0	503	475	0	517	39	21	
10	0	0	0	0	502	473	0	523	39	24	
11	0	0	0	0	510	475	0	548	39	26	
12	0	0	0	0	513	475	0	559	39	28	
13	0	0	0	0	508	477	0	554	39	28	
14	0	0	0	0	505	479	0	545	39	27	
15	0	0	0	0	512	479	0	536	39	25	
0	0	0	0	0	508	469	0	538	39	22	
1	0	0	0	0	511	460	0	545	39	21	
2	0	0	0	0	505	464	0	550	39	23	
3	0	0	0	0	511	471	0	544	39	25	
4	0	0	0	0	506	478	0	536	39	27	
5	0	0	0	0	507	477	0	527	39	28	
6	0	0	0	0	501	476	0	519	39	28	
7	0	0	0	0	509	480	0	511	39	26	
8	0	0	0	0	510	484	0	518	39	23	
9	0	0	0	0	508	481	0	532	39	21	
10	0	0	0	0	505	480	0	534	39	22	
11	0	0	0	0	513	473	0	528	39	24	
12	0	0	0	0	505	466	0	519	39	26	
13	0	0	0	0	500	471	0	511	39	28	
14	0	0	0	0	512	474	0	506	39	28	
15	0	0	0	0	508	475	0	503	39	27	
0	0	0	0	0	514	477	0	501	39	24	
1	0	0	0	0	515	481	0	516	39	21	
2	0	0	0	0	506	485	0	536	39	21	
3	0	0	0	0	507	486	0	540	39	24	
4	0	0	0	0	508	480	0	534	39	26	
5	0	0	0	0	504	477	0	523	39	28	
6	0	0	0	0	514	476	0	513	39	28	
7	0	0	0	0	507	474	0	519	39	27	
8	0	0	0	0	508	476	0	537	39	25	
9	0	0	0	0	505	482	0	542	39	22	
10	0	0	0	0	512	481	0	546	39	21	
11	0	0	0	0	512	479	0	540	39	23	
12	0	0	0	0	508	476	0	530	39	25	
13	0	0	0	0	511	471	0	521	39	27	
14	0	0	0	0	508	461	0	513	39	28	
15	0	0	0	0	508	463	0	506	39	28	
0	0	0	0	0	509	471	0	502	39	26	
1	0	0	0	0	504	481	0	499	39	23	
2	0	0	0	0	503	483	0	498	39	21	
3	0	0	0	0	512	474	0	499	39	22	
4	0	0	0	0	516	468	0	500	39	24	
5	0	0	0	0	506	469	0	500	39	26	
6	0	0	0	0	510	476	0	514	39	28	
7	0	0	0	0	508	477	0	539	39	28	
8	0	0	0	0	510	480	0	548	39	27	
9	0	0	0	0	505	488	0	567	39	24	
10	0	0	0	0	504	493	0	574	39	21	
11	0	0	0	0	506	492	0	584	39	21	
12	0	0	0	0	508	486	0	587	39	24	
13	0	0	0	0	512	484	0	580	39	26	
14	0	0	0	0	509	486	0	585	39	28	
15	0	0	0	0	507	481	0	577	39	28	
0	0	0	0	0	504	481	0	559	39	27	
1	0	0	0	0	503	489	0	547	39	25	
2	0	0	0	0	501	498	0	542	39	22	
3	0	0	0	0	510	504	0	532	39	21	
4	0	0	0	0	504	504	0	522	39	23	
5	0	0	0	0	512	496	0	515	39	25	
6	0	0	0	0	511	493	0	512	39	27	
7	0	0	0	0	513	494	0	510	39	28	
8	0	0	0	0	508	494	0	509	39	28	
9	0	0	0	0	511	486	0	507	39	26	
10	0	0	0	0	511	480	0	505	39	23	
11	0	0	0	0	505	477	0	506	39	21	
12	0	0	0	0	506	480	0	509	39	22	
13	0	0	0	0	505	485	0	532	39	24	
14	0	0	0	0	506	488	0	547	39	26	
15	0	0	0	0	505	490	0	559	39	28	
0	0	0	0	0	510	489	0	572	39	28	
1	0	0	0	0	510	486	0	565	39	27	
2	0	0	0	0	506	478	0	550	39	24	
3	0	0	0	0	508	477	0	536	39	21	
4	0	0	0	0	507	485	0	524	39	21	
5	0	0	0	0	519	495	0	517	39	24	
6	0	0	0	0	507	501	0	514	39	26	
7	0	0	0	0	506	499	0	511	39	28	
8	0	0	0	0	507	488	0	509	39	28	
9	0	0	0	0	506	483	0	534	39	27	
10	0	0	0	0	511	481	0	544	39	25	
11	0	0	0	0	511	480	0	551	39	22	
12	0	0	0	0	511	487	0	559	39	21	
13	0	0	0	0	511	496	0	552	39	23	
14	0	0	0	0	507	492	0	527	39	25	
15	0	0	0	0	505	485	0	526	39	27	
0	0	0	0	0	505	482	0	539	39	28	
1	0	0	0	0	505	485	0	539	39	28	
2	0	0	0	0	505	494	0	532	39	26	
3	0	0	0	0	507	499	0	533	39	23	
4	0	0	0	0	509	494	0	532	39	21	
5	0	0	0	0	505	481	0	526	39	22	
6	0	0	0	0	507	480	0	520	39	24	
7	0	0	0	0	515	484	0	514	39	26	
8	0	0	0	0	508	483	0	510	39	28	
9	0	0	0	0	510	484	0	515	39	28	
10	0	0	0	0	506	491	0	538	39	27	
11	0	0	0	0	511	494	0	545	39	24	
12	0	0	0	0	503	492	0	540	39	21	
13	0	0	0	0	510	492	0	531	39	21	
14	0	0	0	0	505	488	0	522	39	24	
15	0	0	0	0	505	486	0	515	39	26	
0	0	0	0	0	506	483	0	509	39	28	
1	0	0	0	0	508	486	0	524	39	28	
2	0	0	0	0	512	490	0	544	39	27	
3	0	0	0	0	504	494	0	545	39	25	
4	0	0	0	0	513	493	0	540	39	22	
5	0	0	0	0	507	493	0	529	39	21	
6	0	0	0	0	509	497	0	530	39	23	
7	0	0	0	0	509	498	0	528	39	25	
8	0	0	0	0	504	497	0	541	39	27	
9	0	0	0	0	504	503	0	538	39	28	
10	0	0	0	0	509	510	0	529	39	28	
11	0	0	0	0	512	509	0	521	39	26	
12	0	0	0	0	513	508	0	516	39	23	
13	0	0	0	0	504	503	0	511	39	21	
14	0	0	0	0	504	491	0	508	39	22	
15	0	0	0	0	507	483	0	507	39	24	
0	0	0	0	0	510	483	0	505	39	26	
1	0	0	0	0	504	487	0	515	39	28	
2	0	0	0	0	506	488	0	542	39	28	
3	0	0	0	0	510	489	0	549	39	27	
4	0	0	0	0	507	489	0	545	39	24	
5	0	0	0	0	506	486	0	546	39	21	
6	0	0	0	0	512	485	0	539	39	21	
7	0	0	0	0	510	489	0	537	39	24	
8	0	0	0	0	508	488	0	553	39	26	
9	0	0	0	0	510	490	0	553	39	28	
10	0	0	0	0	513	490	0	542	39	28	
11	0	0	0	0	501	487	0	528	39	27	
12	0	0	0	0	511	492	0	518	39	25	
13	0	0	0	0	508	502	0	516	39	22	
14	0	0	0	0	511	508	0	505	39	21	
15	0	0	0	0	504	505	0	504	39	23	
0	0	0	0	0	513	499	0	514	39	25	
1	0	0	0	0	504	496	0	531	39	27	
2	0	0	0	0	510	495	0	538	39	28	
3	0	0	0	0	509	492	0	555	39	28	
4	0	0	0	0	507	490	0	561	39	26	
5	0	0	0	0	504	494	0	552	39	23	
6	0	0	0	0	507	497	0	538	39	21	
7	0	0	0	0	514	497	0	524	39	22	
8	0	0	0	0	513	500	0	508	39	24	
9	0	0	0	0	514	507	0	497	39	26	
10	0	0	0	0	509	508	0	491	39	28	
11	0	0	0	0	508	496	0	497	39	28	
12	0	0	0	0	503	486	0	525	39	27	
13	0	0	0	0	508	491	0	538	39	24	
14	0	0	0	0	504	496	0	553	39	21	
15	0	0	0	0	518	495	0	561	39	21	
0	0	0	0	0	504	490	0	550	39	24	
1	0	0	0	0	508	490	0	540	39	26	
2	0	0	0	0	502	489	0	538	39	28	
3	0	0	0	0	507	489	0	529	39	28	
4	0	0	0	0	504	484	0	520	39	27	
5	0	0	0	0	511	483	0	513	39	25	
6	0	0	0	0	504	489	0	507	39	22	
7	0	0	0	0	510	495	0	502	39	21	
8	0	0	0	0	510	496	0	497	39	23	
9	0	0	0	0	508	494	0	495	39	25	
10	0	0	0	0	518	495	0	493	39	27	
11	0	0	0	0	508	498	0	493	39	28	
12	0	0	0	0	505	495	0	515	39	28	
13	0	0	0	0	506	494	0	529	39	26	
14	0	0	0	0	507	492	0	527	39	23	
15	0	0	0	0	502	497	0	527	39	21	
0	0	0	0	0	505	505	0	542	39	22	
1	0	0	0	0	507	505	0	541	39	24	
2	0	0	0	0	505	498	0	530	39	26	
3	0	0	0	0	503	483	0	515	39	28	
4	0	0	0	0	515	477	0	505	39	28	
5	0	0	0	0	515	478	0	496	39	27	
6	0	0	0	0	508	487	0	491	39	24	
7	0	0	0	0	513	495	0	487	39	21	
8	0	0	0	0	502	498	0	496	39	21	
9	0	0	0	0	507	495	0	511	39	24	
10	0	0	0	0	512	495	0	518	39	26	
11	0	0	0	0	512	497	0	509	39	28	
12	0	0	0	0	512	495	0	500	39	28	
13	0	0	0	0	500	498	0	492	39	27	
14	0	0	0	0	504	492	0	488	39	25	
15	0	0	0	0	506	484	0	484	39	22	
0	0	0	0	0	516	489	0	482	39	21	
1	0	0	0	0	511	492	0	499	39	23	
2	0	0	0	0	506	494	0	520	39	25	
3	0	0	0	0	508	500	0	523	39	27	
4	0	0	0	0	504	507	0	519	39	28	
5	0	0	0	0	511	506	0	520	39	28	
6	0	0	0	0	508	500	0	515	39	26	
7	0	0	0	0	508	498	0	519	39	23	
8	0	0	0	0	508	498	0	533	39	21	
9	0	0	0	0	509	499	0	531	39	22	
10	0	0	0	0	504	496	0	521	39	24	
11	0	0	0	0	511	496	0	509	39	26	
12	0	0	0	0	513	501	0	496	39	28	
13	0	0	0	0	509	508	0	490	39	28	
14	0	0	0	0	508	510	0	485	39	27	
15	0	0	0	0	508	511	0	481	39	24	
0	0	0	0	0	503	503	0	477	39	21	
1	0	0	0	0	511	495	0	486	39	21	
2	0	0	0	0	508	488	0	510	39	23	
3	0	0	0	0	506	489	0	516	39	26	
4	0	0	0	0	504	496	0	508	39	27	
5	0	0	0	0	505	503	0	508	39	28	
6	0	0	0	0	506	511	0	492	39	27	
7	0	0	0	0	504	507	0	488	39	25	
8	0	0	0	0	513	503	0	501	39	22	
9	0	0	0	0	511	503	0	500	39	21	
10	0	0	0	0	507	504	0	492	39	23	
11	0	0	0	0	503	508	0	483	39	25	
12	0	0	0	0	509	508	0	476	38	27	
13	0	0	0	0	510	502	0	470	39	28	
14	0	0	0	0	512	495	0	465	39	28	
15	0	0	0	0	511	496	0	461	39	26	
0	0	0	0	0	508	497	0	468	39	23	
1	0	0	0	0	504	498	0	484	39	21	
2	0	0	0	0	505	499	0	485	39	22	
3	0	0	0	0	506	499	0	481	39	24	
4	0	0	0	0	509	496	0	483	39	26	
5	0	0	0	0	504	497	0	478	39	28	
6	0	0	0	0	499	500	0	472	39	28	
7	0	0	0	0	504	503	0	466	39	27	
8	0	0	0	0	510	504	0	462	39	24	
9	0	0	0	0	508	510	0	456	39	21	
10	0	0	0	0	508	513	0	464	39	21	
11	0	0	0	0	511	516	0	487	39	23	
12	0	0	0	0	511	512	0	492	39	26	
13	0	0	0	0	513	500	0	485	39	27	
14	0	0	0	0	504	495	0	476	39	28	
15	0	0	0	0	511	503	0	467	39	27	
0	0	0	0	0	510	508	0	468	39	25	
1	0	0	0	0	510	505	0	484	39	22	
2	0	0	0	0	505	507	0	486	39	21	
3	0	0	0	0	506	508	0	482	39	23	
4	0	0	0	0	512	502	0	473	39	25	
5	0	0	0	0	504	498	0	465	39	27	
6	0	0	0	0	513	500	0	475	39	28	
7	0	0	0	0	504	496	0	459	39	28	
8	0	0	0	0	511	500	0	474	39	26	
9	0	0	0	0	511	504	0	490	39	23	
10	0	0	0	0	498	497	0	492	39	21	
11	0	0	0	0	512	485	0	488	39	22	
12	0	0	0	0	510	480	0	481	39	24	
13	0	0	0	0	509	483	0	486	39	26	
14	0	0	0	0	511	487	0	484	39	28	
15	0	0	0	0	505	491	0	480	39	28	
0	0	0	0	0	509	496	0	476	39	27	
1	0	0	0	0	514	495	0	471	39	24	
2	0	0	0	0	504	489	0	467	39	21	
3	0	0	0	0	505	489	0	465	39	21	
4	0	0	0	0	508	489	0	464	39	23	
5	0	0	0	0	515	487	0	466	39	26	
6	0	0	0	0	508	486	0	487	39	27	
7	0	0	0	0	512	491	0	502	39	28	
8	0	0	0	0	509	495	0	512	39	27	
9	0	0	0	0	508	501	0	525	39	25	
10	0	0	0	0	508	499	0	524	39	22	
11	0	0	0	0	502	487	0	534	39	21	
12	0	0	0	0	511	485	0	534	39	23	
13	0	0	0	0	511	490	0	520	39	25	
14	0	0	0	0	514	499	0	512	39	27	
15	0	0	0	0	506	501	0	522	39	28	
0	0	0	0	0	506	499	0	515	39	28	
1	0	0	0	0	515	495	0	501	39	26	
2	0	0	0	0	501	495	0	497	39	23	
3	0	0	0	0	508	497	0	492	39	21	
4	0	0	0	0	507	500	0	484	39	22	
5	0	0	0	0	504	503	0	478	39	24	
6	0	0	0	0	503	504	0	475	39	26	
7	0	0	0	0	509	503	0	468	39	28	
8	0	0	0	0	502	502	0	465	39	28	
9	0	0	0	0	514	503	0	468	39	27	
10	0	0	0	0	509	501	0	491	39	24	
11	0	0	0	0	503	503	0	507	39	22	
12	0	0	0	0	515	504	0	506	39	21	
13	0	0	0	0	508	508	0	501	39	23	
14	0	0	0	0	511	513	0	493	39	26	
15	0	0	0	0	508	513	0	487	39	27	
0	0	0	0	0	504	508	0	496	39	28	
1	0	0	0	0	510	504	0	508	39	27	
2	0	0	0	0	511	504	0	507	39	25	
3	0	0	0	0	503	505	0	499	39	22	
4	0	0	0	0	508	505	0	489	39	21	
5	0	0	0	0	509	505	0	480	39	23	
6	0	0	0	0	508	504	0	473	39	25	
7	0	0	0	0	507	502	0	471	39	27	
8	0	0	0	0	506	502	0	472	39	28	
9	0	0	0	0	510	503	0	494	39	28	
10	0	0	0	0	515	500	0	505	39	26	
11	0	0	0	0	507	500	0	503	39	23	
12	0	0	0	0	508	497	0	506	39	21	
13	0	0	0	0	504	495	0	491	39	22	
14	0	0	0	0	512	492	0	484	39	24	
15	0	0	0	0	514	492	0	479	39	26	
0	0	0	0	0	508	495	0	487	39	28	
1	0	0	0	0	508	497	0	504	39	28	
2	0	0	0	0	504	502	0	507	39	27	
3	0	0	0	0	503	513	0	505	39	24	
4	0	0	0	0	504	521	0	509	39	22	
5	0	0	0	0	507	524	0	504	39	21	
6	0	0	0	0	508	515	0	499	39	23	
7	0	0	0	0	510	508	0	493	39	26	
8	0	0	0	0	505	504	0	489	39	27	
9	0	0	0	0	510	504	0	486	39	28	
10	0	0	0	0	513	509	0	495	39	27	
11	0	0	0	0	503	513	0	519	39	25	
12	0	0	0	0	511	513	0	524	39	22	
13	0	0	0	0	508	512	0	517	39	21	
14	0	0	0	0	508	511	0	505	39	23	
15	0	0	0	0	505	510	0	495	39	25	
0	0	0	0	0	517	507	0	494	39	27	
1	0	0	0	0	507	503	0	521	39	28	
2	0	0	0	0	507	494	0	513	39	28	
3	0	0	0	0	508	493	0	504	39	26	
4	0	0	0	0	515	496	0	495	39	23	
5	0	0	0	0	502	496	0	487	39	21	
6	0	0	0	0	505	498	0	482	39	22	
7	0	0	0	0	504	501	0	478	39	24	
8	0	0	0	0	505	505	0	473	39	26	
9	0	0	0	0	509	506	0	483	39	28	
10	0	0	0	0	511	508	0	503	39	28	
11	0	0	0	0	507	512	0	510	39	27	
12	0	0	0	0	508	514	0	505	39	24	
13	0	0	0	0	511	519	0	497	39	22	
14	0	0	0	0	507	520	0	490	39	21	
15	0	0	0	0	505	513	0	492	39	23	
0	0	0	0	0	508	504	0	510	39	26	
1	0	0	0	0	510	495	0	515	39	27	
2	0	0	0	0	511	492	0	510	39	28	
3	0	0	0	0	510	495	0	511	39	27	
4	0	0	0	0	504	500	0	510	39	25	
5	0	0	0	0	509	495	0	504	39	22	
6	0	0	0	0	504	488	0	497	39	21	
7	0	0	0	0	513	487	0	490	39	23	
8	0	0	0	0	512	487	0	484	39	25	
9	0	0	0	0	500	493	0	489	39	27	
10	0	0	0	0	502	498	0	511	39	28	
11	0	0	0	0	508	500	0	519	39	28	
12	0	0	0	0	509	502	0	514	39	26	
13	0	0	0	0	510	504	0	502	39	23	
14	0	0	0	0	512	506	0	493	39	21	
15	0	0	0	0	507	507	0	484	39	22	
0	0	0	0	0	511	503	0	475	39	24	
1	0	0	0	0	501	506	0	475	39	26	
2	0	0	0	0	511	506	0	468	39	28	
3	0	0	0	0	507	505	0	468	39	28	
4	0	0	0	0	508	506	0	472	39	27	
5	0	0	0	0	502	502	0	496	39	24	
6	0	0	0	0	515	502	0	513	39	22	
7	0	0	0	0	512	503	0	524	39	21	
8	0	0	0	0	503	505	0	536	39	23	
9	0	0	0	0	509	507	0	529	39	26	
10	0	0	0	0	507	499	0	514	39	27	
11	0	0	0	0	512	492	0	503	39	28	
12	0	0	0	0	503	491	0	493	39	27	
13	0	0	0	0	498	498	0	486	39	25	
14	0	0	0	0	518	503	0	481	39	22	
15	0	0	0	0	509	506	0	478	39	21	
0	0	0	0	0	505	508	0	476	39	23	
1	0	0	0	0	506	509	0	485	39	25	
2	0	0	0	0	511	501	0	509	39	27	
3	0	0	0	0	503	496	0	518	39	28	
4	0	0	0	0	507	499	0	538	39	28	
5	0	0	0	0	502	503	0	547	39	26	
6	0	0	0	0	511	507	0	550	39	23	
7	0	0	0	0	505	511	0	555	39	21	
8	0	0	0	0	509	513	0	543	39	22	
9	0	0	0	0	507	519	0	536	39	24	
10	0	0	0	0	508	522	0	520	39	26	
11	0	0	0	0	505	523	0	504	39	28	
12	0	0	0	0	513	524	0	494	39	28	
13	0	0	0	0	516	525	0	489	39	27	
14	0	0	0	0	504	527	0	484	39	24	
15	0	0	0	0	507	529	0	480	39	22	
0	0	0	0	0	508	525	0	480	39	21	
1	0	0	0	0	510	516	0	480	39	23	
2	0	0	0	0	505	510	0	480	39	26	
3	0	0	0	0	508	513	0	481	39	27	
4	0	0	0	0	504	513	0	499	39	28	
5	0	0	0	0	510	512	0	518	39	27	
6	0	0	0	0	511	515	0	526	39	25	
7	0	0	0	0	505	519	0	544	39	22	
8	0	0	0	0	504	521	0	543	39	21	
9	0	0	0	0	505	521	0	529	39	23	
10	0	0	0	0	510	524	0	512	39	25	
11	0	0	0	0	504	521	0	499	39	27	
12	0	0	0	0	509	513	0	489	39	28	
13	0	0	0	0	511	501	0	482	39	28	
14	0	0	0	0	505	493	0	476	39	26	
15	0	0	0	0	514	493	0	473	39	23	
0	0	0	0	0	513	501	0	478	39	21	
1	0	0	0	0	512	516	0	497	39	22	
2	0	0	0	0	503	528	0	501	39	24	
3	0	0	0	0	506	529	0	497	39	26	
4	0	0	0	0	503	521	0	501	39	28	
5	0	0	0	0	518	516	0	501	39	28	
6	0	0	0	0	503	514	0	496	39	27	
7	0	0	0	0	511	517	0	490	39	24	
8	0	0	0	0	503	512	0	484	39	22	
9	0	0	0	0	504	502	0	493	39	21	
10	0	0	0	0	512	502	0	518	39	23	
11	0	0	0	0	511	502	0	519	39	26	
12	0	0	0	0	506	503	0	510	39	27	
13	0	0	0	0	509	504	0	499	39	28	
14	0	0	0	0	505	503	0	489	39	27	
15	0	0	0	0	502	501	0	483	39	25	
0	0	0	0	0	507	500	0	480	39	22	
1	0	0	0	0	510	496	0	496	39	21	
2	0	0	0	0	511	492	0	508	39	23	
3	0	0	0	0	505	500	0	504	39	25	
4	0	0	0	0	511	505	0	496	39	27	
5	0	0	0	0	506	506	0	487	39	28	
6	0	0	0	0	504	502	0	479	39	28	
7	0	0	0	0	504	492	0	472	39	26	
8	0	0	0	0	510	487	0	481	39	23	
9	0	0	0	0	508	488	0	495	39	21	
10	0	0	0	0	508	492	0	497	39	22	
11	0	0	0	0	513	493	0	493	39	24	
12	0	0	0	0	509	498	0	483	39	26	
13	0	0	0	0	506	505	0	477	39	28	
14	0	0	0	0	506	500	0	472	39	28	
15	0	0	0	0	507	491	0	470	39	27	
0	0	0	0	0	510	485	0	467	39	24	
1	0	0	0	0	508	491	0	484	39	22	
2	0	0	0	0	510	495	0	501	39	21	
3	0	0	0	0	505	498	0	502	39	23	
4	0	0	0	0	509	492	0	497	39	26	
5	0	0	0	0	508	488	0	498	39	27	
6	0	0	0	0	514	490	0	490	39	28	
7	0	0	0	0	509	492	0	493	39	27	
8	0	0	0	0	500	491	0	507	39	25	
9	0	0	0	0	510	490	0	504	39	22	
10	0	0	0	0	508	494	0	492	39	21	
11	0	0	0	0	503	486	0	481	39	23	
12	0	0	0	0	504	472	0	472	39	25	
13	0	0	0	0	511	473	0	467	39	27	
14	0	0	0	0	506	479	0	464	39	28	
15	0	0	0	0	504	474	0	460	39	28	
0	0	0	0	0	513	472	0	456	39	26	
1	0	0	0	0	508	475	0	466	39	23	
2	0	0	0	0	507	482	0	488	39	21	
3	0	0	0	0	505	489	0	492	39	22	
4	0	0	0	0	508	490	0	484	39	24	
5	0	0	0	0	511	491	0	474	39	26	
6	0	0	0	0	507	494	0	473	39	28	
7	0	0	0	0	502	499	0	471	39	28	
8	0	0	0	0	513	501	0	464	39	27	
9	0	0	0	0	514	504	0	458	39	24	
10	0	0	0	0	511	501	0	470	39	22	
11	0	0	0	0	502	497	0	484	39	21	
12	0	0	0	0	502	496	0	482	39	23	
13	0	0	0	0	506	497	0	476	39	26	
14	0	0	0	0	508	494	0	471	39	27	
15	0	0	0	0	512	490	0	463	39	28	
0	0	0	0	0	511	491	0	456	39	27	
1	0	0	0	0	510	496	0	456	39	25	
2	0	0	0	0	504	499	0	479	39	22	
3	0	0	0	0	509	499	0	485	39	21	
4	0	0	0	0	512	497	0	481	39	23	
5	0	0	0	0	504	494	0	472	39	25	
6	0	0	0	0	504	496	0	467	39	27	
7	0	0	0	0	508	504	0	464	39	28	
8	0	0	0	0	510	514	0	478	39	28	
9	0	0	0	0	509	528	0	485	39	26	
10	0	0	0	0	512	537	0	481	39	23	
11	0	0	0	0	510	551	0	475	39	21	
12	0	0	0	0	499	564	0	469	39	22	
13	0	0	0	0	500	575	0	464	39	24	
14	0	0	0	0	513	576	0	459	39	26	
15	0	0	0	0	508	580	0	456	39	28	
0	0	0	0	0	506	593	0	462	39	28	
1	0	0	0	0	507	605	0	483	39	27	
2	0	0	0	0	511	616	0	489	39	24	
3	0	0	0	0	511	628	0	483	39	22	
4	0	0	0	0	503	636	0	485	39	21	
5	0	0	0	0	511	644	0	489	39	23	
6	0	0	0	0	506	659	0	493	39	26	
7	0	0	0	0	508	672	0	488	39	27	
8	0	0	0	0	511	681	0	497	39	28	
9	0	0	0	0	508	691	0	508	39	28	
10	0	0	0	0	510	703	0	503	39	25	
11	0	0	0	0	512	712	0	493	39	22	
12	0	0	0	0	505	720	0	483	39	21	
13	0	0	0	0	504	728	0	474	39	23	
14	0	0	0	0	508	736	0	470	39	25	
15	0	0	0	0	511	742	0	465	39	27	
0	0	0	0	0	509	738	0	463	39	28	
1	0	0	0	0	508	734	0	483	39	28	
2	0	0	0	0	508	724	0	497	39	26	
3	0	0	0	0	508	711	0	495	39	23	
4	0	0	0	0	505	691	0	487	39	21	
5	0	0	0	0	511	671	0	479	39	22	
6	0	0	0	0	509	652	0	472	39	24	
7	0	0	0	0	509	632	0	464	39	26	
8	0	0	0	0	508	619	0	471	39	28	
9	0	0	0	0	510	609	0	486	39	28	
10	0	0	0	0	506	593	0	488	39	27	
11	0	0	0	0	503	573	0	483	39	24	
12	0	0	0	0	505	552	0	473	39	22	
13	0	0	0	0	508	529	0	465	39	21	
14	0	0	0	0	515	502	0	460	39	23	
15	0	0	0	0	511	472	0	458	39	26	
0	0	0	0	0	509	450	0	451	39	27	
1	0	0	0	0	513	436	0	446	39	28	
2	0	0	0	0	502	432	0	446	39	28	
3	0	0	0	0	508	431	0	446	39	25	
4	0	0	0	0	511	428	0	448	39	22	
5	0	0	0	0	510	430	0	451	39	21	
6	0	0	0	0	507	431	0	450	39	22	
7	0	0	0	0	506	433	0	449	39	25	
8	0	0	0	0	510	435	0	446	39	27	
9	0	0	0	0	507	432	0	443	39	28	
10	0	0	0	0	510	429	0	443	39	28	
11	0	0	0	0	508	434	0	445	39	26	
12	0	0	0	0	504	437	0	448	39	23	
13	0	0	0	0	504	437	0	451	39	21	
14	0	0	0	0	504	423	0	454	39	22	
15	0	0	0	0	513	417	0	454	39	24	
0	0	0	0	0	508	414	0	450	39	26	
1	0	0	0	0	517	415	0	461	39	28	
2	0	0	0	0	509	418	0	489	39	28	
3	0	0	0	0	505	415	0	498	39	27	
4	0	0	0	0	505	414	0	498	39	24	
5	0	0	0	0	507	419	0	487	39	22	
6	0	0	0	0	505	426	0	479	39	21	
7	0	0	0	0	508	432	0	470	39	23	
8	0	0	0	0	510	436	0	463	39	26	
9	0	0	0	0	502	436	0	457	39	27	
10	0	0	0	0	511	436	0	454	39	28	
11	0	0	0	0	504	433	0	456	39	28	
12	0	0	0	0	508	432	0	459	39	25	
13	0	0	0	0	514	437	0	463	39	22	
14	0	0	0	0	507	445	0	464	39	21	
15	0	0	0	0	502	452	0	462	39	23	
0	0	0	0	0	505	455	0	458	39	25	
1	0	0	0	0	505	443	0	456	39	27	
2	0	0	0	0	510	438	0	459	39	28	
3	0	0	0	0	513	440	0	465	39	28	
4	0	0	0	0	508	453	0	467	39	26	
5	0	0	0	0	508	462	0	468	39	23	
6	0	0	0	0	508	469	0	472	39	21	
7	0	0	0	0	508	472	0	472	39	22	
8	0	0	0	0	500	473	0	469	39	24	
9	0	0	0	0	510	467	0	467	39	26	
10	0	0	0	0	509	455	0	483	39	28	
11	0	0	0	0	507	447	0	507	39	28	
12	0	0	0	0	507	446	0	514	39	27	
13	0	0	0	0	507	452	0	510	39	24	
14	0	0	0	0	506	459	0	513	39	22	
15	0	0	0	0	514	465	0	495	39	21	
0	0	0	0	0	510	464	0	488	39	23	
1	0	0	0	0	510	464	0	478	39	26	
2	0	0	0	0	510	464	0	473	39	27	
3	0	0	0	0	506	470	0	470	39	28	
4	0	0	0	0	506	471	0	469	39	28	
5	0	0	0	0	509	472	0	470	39	25	
6	0	0	0	0	510	479	0	472	39	22	
7	0	0	0	0	506	485	0	472	39	21	
8	0	0	0	0	510	485	0	491	39	22	
9	0	0	0	0	504	487	0	512	39	25	
10	0	0	0	0	502	484	0	524	39	27	
11	0	0	0	0	509	476	0	546	39	28	
12	0	0	0	0	508	467	0	548	39	28	
13	0	0	0	0	512	468	0	556	39	26	
14	0	0	0	0	512	473	0	561	39	23	
15	0	0	0	0	511	470	0	557	39	21	
0	0	0	0	0	507	457	0	562	39	22	
1	0	0	0	0	513	464	0	553	39	24	
2	0	0	0	0	503	471	0	554	39	26	
3	0	0	0	0	505	471	0	560	39	28	
4	0	0	0	0	505	476	0	559	39	28	
5	0	0	0	0	507	480	0	569	39	27	
6	0	0	0	0	512	476	0	564	39	24	
7	0	0	0	0	509	465	0	566	39	22	
8	0	0	0	0	508	463	0	571	39	21	
9	0	0	0	0	510	472	0	567	39	23	
10	0	0	0	0	510	485	0	574	39	26	
11	0	0	0	0	508	494	0	566	39	27	
12	0	0	0	0	503	493	0	566	39	28	
13	0	0	0	0	519	490	0	564	39	28	
14	0	0	0	0	508	488	0	558	39	25	
15	0	0	0	0	509	484	0	565	39	22	
0	0	0	0	0	511	484	0	560	39	21	
1	0	0	0	0	510	486	0	560	39	22	
2	0	0	0	0	510	489	0	525	39	25	
3	0	0	0	0	508	487	0	510	39	27	
4	0	0	0	0	504	485	0	495	39	28	
5	0	0	0	0	505	480	0	487	39	28	
6	0	0	0	0	507	480	0	481	39	26	
7	0	0	0	0	508	487	0	477	39	23	
8	0	0	0	0	508	491	0	483	39	21	
9	0	0	0	0	503	495	0	503	39	22	
10	0	0	0	0	507	485	0	509	39	24	
11	0	0	0	0	501	470	0	505	39	26	
12	0	0	0	0	505	467	0	497	39	28	
13	0	0	0	0	509	473	0	492	39	28	
14	0	0	0	0	513	478	0	487	39	27	
15	0	0	0	0	511	483	0	485	39	24	
0	0	0	0	0	511	486	0	498	39	22	
1	0	0	0	0	511	488	0	527	39	21	
2	0	0	0	0	512	488	0	513	39	23	
3	0	0	0	0	517	494	0	511	39	26	
4	0	0	0	0	499	498	0	515	39	27	
5	0	0	0	0	506	496	0	509	39	28	
6	0	0	0	0	510	490	0	503	39	28	
7	0	0	0	0	503	493	0	496	39	25	
8	0	0	0	0	510	496	0	491	39	22	
9	0	0	0	0	513	500	0	488	39	21	
10	0	0	0	0	505	505	0	503	39	22	
11	0	0	0	0	510	503	0	521	39	25	
12	0	0	0	0	507	505	0	523	39	27	
13	0	0	0	0	510	505	0	516	39	28	
14	0	0	0	0	510	509	0	504	39	28	
15	0	0	0	0	507	515	0	492	39	26	
0	0	0	0	0	499	512	0	486	39	23	
1	0	0	0	0	511	503	0	487	39	21	
2	0	0	0	0	507	494	0	506	39	22	
3	0	0	0	0	507	496	0	511	39	24	
4	0	0	0	0	512	492	0	506	39	26	
5	0	0	0	0	506	487	0	496	39	28	
6	0	0	0	0	511	487	0	489	39	28	
7	0	0	0	0	503	496	0	487	39	27	
8	0	0	0	0	511	505	0	502	39	24	
9	0	0	0	0	504	510	0	511	39	22	
10	0	0	0	0	507	510	0	507	39	21	
11	0	0	0	0	509	513	0	499	39	23	
12	0	0	0	0	512	519	0	492	39	26	
13	0	0	0	0	512	516	0	484	39	27	
14	0	0	0	0	504	512	0	479	39	28	
15	0	0	0	0	512	511	0	474	39	28	
0	0	0	0	0	506	512	0	496	39	25	
1	0	0	0	0	507	507	0	501	39	22	
2	0	0	0	0	507	500	0	508	39	21	
3	0	0	0	0	512	495	0	503	39	22	
4	0	0	0	0	512	493	0	504	39	25	
5	0	0	0	0	509	500	0	503	39	27	
6	0	0	0	0	507	508	0	497	39	28	
7	0	0	0	0	510	510	0	490	39	28	
8	0	0	0	0	514	510	0	483	39	26	
9	0	0	0	0	505	514	0	491	39	23	
10	0	0	0	0	504	516	0	510	39	21	
11	0	0	0	0	509	519	0	513	39	22	
12	0	0	0	0	503	521	0	505	39	24	
13	0	0	0	0	511	527	0	495	39	26	
14	0	0	0	0	512	522	0	486	39	28	
15	0	0	0	0	504	517	0	480	39	28	
0	0	0	0	0	512	509	0	478	39	27	
1	0	0	0	0	502	507	0	497	39	24	
2	0	0	0	0	509	503	0	509	39	22	
3	0	0	0	0	508	502	0	516	39	21	
4	0	0	0	0	509	503	0	519	39	23	
5	0	0	0	0	507	506	0	518	39	25	
6	0	0	0	0	511	512	0	516	39	27	
7	0	0	0	0	506	515	0	503	39	28	
8	0	0	0	0	509	517	0	490	39	28	
9	0	0	0	0	508	519	0	485	39	25	
10	0	0	0	0	512	521	0	488	39	22	
11	0	0	0	0	506	523	0	499	39	21	
12	0	0	0	0	508	528	0	511	39	22	
13	0	0	0	0	510	534	0	521	39	25	
14	0	0	0	0	512	538	0	523	39	27	
15	0	0	0	0	508	540	0	511	39	28	
0	0	0	0	0	506	535	0	496	39	28	
1	0	0	0	0	504	526	0	481	39	26	
2	0	0	0	0	508	530	0	468	39	23	
3	0	0	0	0	508	532	0	461	39	21	
4	0	0	0	0	511	532	0	457	39	22	
5	0	0	0	0	505	532	0	454	39	24	
6	0	0	0	0	510	528	0	471	39	26	
7	0	0	0	0	506	528	0	491	39	28	
8	0	0	0	0	510	535	0	501	39	28	
9	0	0	0	0	508	541	0	522	39	27	
10	0	0	0	0	511	542	0	524	39	24	
11	0	0	0	0	511	538	0	523	39	22	
12	0	0	0	0	500	533	0	511	39	21	
13	0	0	0	0	508	537	0	497	39	23	
14	0	0	0	0	507	551	0	484	39	25	
15	0	0	0	0	508	560	0	474	39	27	
0	0	0	0	0	503	560	0	465	39	28	
1	0	0	0	0	515	559	0	473	39	28	
2	0	0	0	0	509	556	0	493	39	25	
3	0	0	0	0	505	551	0	495	39	22	
4	0	0	0	0	507	548	0	488	39	21	
5	0	0	0	0	504	542	0	480	39	22	
6	0	0	0	0	504	543	0	472	39	25	
7	0	0	0	0	505	545	0	468	39	27	
8	0	0	0	0	502	540	0	468	39	28	
9	0	0	0	0	514	531	0	486	39	28	
10	0	0	0	0	512	528	0	498	39	26	
11	0	0	0	0	504	535	0	496	39	23	
12	0	0	0	0	504	541	0	488	39	21	
13	0	0	0	0	508	547	0	479	39	22	
14	0	0	0	0	511	555	0	472	39	24	
15	0	0	0	0	513	559	0	466	39	26	
0	0	0	0	0	509	558	0	473	39	28	
1	0	0	0	0	511	553	0	487	39	28	
2	0	0	0	0	506	548	0	490	39	27	
3	0	0	0	0	511	545	0	487	39	24	
4	0	0	0	0	513	545	0	505	39	22	
5	0	0	0	0	509	544	0	488	39	21	
6	0	0	0	0	510	540	0	484	39	23	
7	0	0	0	0	511	540	0	478	39	25	
8	0	0	0	0	498	546	0	473	39	27	
9	0	0	0	0	501	550	0	469	39	28	
10	0	0	0	0	508	551	0	479	39	28	
11	0	0	0	0	504	551	0	504	39	25	
12	0	0	0	0	503	547	0	508	38	22	
13	0	0	0	0	512	547	0	503	39	21	
14	0	0	0	0	508	547	0	492	39	22	
15	0	0	0	0	511	548	0	483	39	25	
0	0	0	0	0	507	550	0	477	39	27	
1	0	0	0	0	509	551	0	475	39	28	
2	0	0	0	0	512	544	0	494	39	28	
3	0	0	0	0	504	537	0	504	39	26	
4	0	0	0	0	510	532	0	502	39	23	
5	0	0	0	0	510	533	0	496	39	21	
6	0	0	0	0	511	536	0	491	39	22	
7	0	0	0	0	507	537	0	483	39	24	
8	0	0	0	0	505	539	0	494	39	26	
9	0	0	0	0	508	542	0	510	39	28	
10	0	0	0	0	508	539	0	510	39	28	
11	0	0	0	0	509	529	0	503	39	27	
12	0	0	0	0	508	526	0	496	39	24	
13	0	0	0	0	506	527	0	488	39	22	
14	0	0	0	0	503	523	0	480	39	21	
15	0	0	0	0	509	524	0	477	39	23	
0	0	0	0	0	507	525	0	479	39	25	
1	0	0	0	0	503	527	0	497	39	27	
2	0	0	0	0	509	525	0	508	39	28	
3	0	0	0	0	509	522	0	514	39	28	
4	0	0	0	0	511	515	0	508	39	25	
5	0	0	0	0	505	514	0	508	39	22	
6	0	0	0	0	507	517	0	500	39	21	
7	0	0	0	0	502	517	0	510	39	22	
8	0	0	0	0	505	513	0	522	39	25	
9	0	0	0	0	512	499	0	519	39	27	
10	0	0	0	0	512	486	0	509	39	28	
11	0	0	0	0	512	483	0	499	39	28	
12	0	0	0	0	515	482	0	491	39	26	
13	0	0	0	0	507	481	0	484	39	23	
14	0	0	0	0	513	483	0	485	39	21	
15	0	0	0	0	511	481	0	483	39	22	
0	0	0	0	0	508	475	0	483	39	24	
1	0	0	0	0	512	475	0	499	39	26	
2	0	0	0	0	504	473	0	523	39	28	
3	0	0	0	0	510	476	0	527	39	28	
4	0	0	0	0	508	478	0	522	39	27	
5	0	0	0	0	508	473	0	514	39	24	
6	0	0	0	0	506	468	0	506	39	22	
7	0	0	0	0	508	464	0	509	39	21	
8	0	0	0	0	504	465	0	521	39	23	
9	0	0	0	0	511	470	0	518	39	25	
10	0	0	0	0	507	472	0	511	39	27	
11	0	0	0	0	510	471	0	504	39	28	
12	0	0	0	0	511	473	0	503	39	28	
13	0	0	0	0	506	476	0	497	39	25	
14	0	0	0	0	508	482	0	493	39	22	
15	0	0	0	0	502	483	0	491	39	21	
0	0	0	0	0	511	480	0	489	39	22	
1	0	0	0	0	513	471	0	499	39	25	
2	0	0	0	0	509	465	0	526	39	27	
3	0	0	0	0	509	463	0	531	39	28	
4	0	0	0	0	508	463	0	527	39	28	
5	0	0	0	0	509	469	0	515	39	26	
6	0	0	0	0	508	478	0	515	39	23	
7	0	0	0	0	510	476	0	522	39	21	
8	0	0	0	0	512	470	0	542	39	22	
9	0	0	0	0	504	458	0	547	39	24	
10	0	0	0	0	511	451	0	536	39	26	
11	0	0	0	0	510	445	0	524	39	28	
12	0	0	0	0	507	444	0	514	39	28	
13	0	0	0	0	504	441	0	507	39	27	
14	0	0	0	0	509	444	0	502	39	24	
15	0	0	0	0	504	448	0	497	39	22	
0	0	0	0	0	508	451	0	495	39	21	
1	0	0	0	0	508	449	0	499	39	23	
2	0	0	0	0	511	449	0	524	39	25	
3	0	0	0	0	512	452	0	533	39	27	
4	0	0	0	0	504	457	0	531	39	28	
5	0	0	0	0	507	462	0	523	39	28	
6	0	0	0	0	506	461	0	515	39	25	
7	0	0	0	0	512	457	0	513	39	22	
8	0	0	0	0	509	453	0	529	39	21	
9	0	0	0	0	515	448	0	540	39	22	
10	0	0	0	0	505	447	0	536	39	25	
11	0	0	0	0	510	456	0	529	39	27	
12	0	0	0	0	506	465	0	522	39	28	
13	0	0	0	0	507	466	0	517	39	28	
14	0	0	0	0	504	463	0	512	39	26	
15	0	0	0	0	511	463	0	510	39	23	
0	0	0	0	0	509	467	0	514	39	21	
1	0	0	0	0	507	471	0	535	39	22	
2	0	0	0	0	505	468	0	542	39	24	
3	0	0	0	0	507	469	0	539	39	26	
4	0	0	0	0	511	468	0	532	39	28	
5	0	0	0	0	512	472	0	531	39	28	
6	0	0	0	0	509	475	0	535	39	27	
7	0	0	0	0	506	480	0	531	39	24	
8	0	0	0	0	507	481	0	544	39	22	
9	0	0	0	0	509	474	0	559	39	21	
10	0	0	0	0	509	467	0	555	39	23	
11	0	0	0	0	508	466	0	549	39	25	
12	0	0	0	0	508	467	0	538	39	27	
13	0	0	0	0	510	468	0	528	39	28	
14	0	0	0	0	498	467	0	521	39	28	
15	0	0	0	0	507	466	0	515	39	25	
0	0	0	0	0	509	467	0	514	39	22	
1	0	0	0	0	511	467	0	534	39	21	
2	0	0	0	0	506	465	0	547	39	22	
3	0	0	0	0	512	461	0	544	39	25	
4	0	0	0	0	511	454	0	536	39	27	
5	0	0	0	0	509	455	0	526	39	28	
6	0	0	0	0	504	460	0	526	39	28	
7	0	0	0	0	503	467	0	511	39	26	
8	0	0	0	0	503	477	0	517	39	23	
9	0	0	0	0	508	479	0	532	39	21	
10	0	0	0	0	512	476	0	533	39	22	
11	0	0	0	0	502	481	0	527	39	24	
12	0	0	0	0	513	485	0	519	39	26	
13	0	0	0	0	507	485	0	512	39	28	
14	0	0	0	0	509	483	0	508	39	28	
15	0	0	0	0	504	486	0	504	39	27	
0	0	0	0	0	504	481	0	503	39	24	
1	0	0	0	0	504	475	0	517	39	22	
2	0	0	0	0	507	479	0	538	39	21	
3	0	0	0	0	508	486	0	540	39	23	
4	0	0	0	0	510	488	0	536	39	25	
5	0	0	0	0	510	486	0	536	39	27	
6	0	0	0	0	512	481	0	527	39	28	
7	0	0	0	0	509	477	0	526	39	28	
8	0	0	0	0	505	479	0	539	39	25	
9	0	0	0	0	505	480	0	536	39	22	
10	0	0	0	0	502	480	0	525	39	21	
11	0	0	0	0	508	477	0	512	39	22	
12	0	0	0	0	511	470	0	502	39	25	
13	0	0	0	0	507	471	0	496	39	27	
14	0	0	0	0	510	478	0	491	39	28	
15	0	0	0	0	513	483	0	489	39	28	
0	0	0	0	0	506	486	0	487	39	26	
1	0	0	0	0	509	489	0	497	39	23	
2	0	0	0	0	508	491	0	522	39	21	
3	0	0	0	0	507	492	0	529	39	22	
4	0	0	0	0	514	496	0	523	39	24	
5	0	0	0	0	508	500	0	512	39	26	
6	0	0	0	0	504	500	0	498	39	28	
7	0	0	0	0	510	503	0	485	39	28	
8	0	0	0	0	505	498	0	475	39	27	
9	0	0	0	0	508	488	0	467	39	24	
10	0	0	0	0	511	485	0	464	39	22	
11	0	0	0	0	508	491	0	465	39	21	
12	0	0	0	0	511	491	0	468	39	23	
13	0	0	0	0	505	492	0	470	39	25	
14	0	0	0	0	511	497	0	471	39	27	
15	0	0	0	0	504	502	0	469	39	28	
0	0	0	0	0	509	502	0	465	39	28	
1	0	0	0	0	507	499	0	462	39	25	
2	0	0	0	0	507	492	0	462	39	22	
3	0	0	0	0	510	489	0	477	39	21	
4	0	0	0	0	506	492	0	487	39	22	
5	0	0	0	0	502	497	0	508	39	25	
6	0	0	0	0	509	494	0	519	39	27	
7	0	0	0	0	509	491	0	539	39	28	
8	0	0	0	0	515	488	0	538	39	28	
9	0	0	0	0	512	494	0	544	39	26	
10	0	0	0	0	511	502	0	553	39	23	
11	0	0	0	0	508	499	0	550	39	21	
12	0	0	0	0	502	497	0	543	39	22	
13	0	0	0	0	500	487	0	542	39	24	
14	0	0	0	0	509	471	0	508	39	26	
15	0	0	0	0	516	465	0	496	39	28	
0	0	0	0	0	505	465	0	493	39	28	
1	0	0	0	0	513	467	0	512	39	27	
2	0	0	0	0	511	472	0	518	39	24	
3	0	0	0	0	506	476	0	512	39	22	
4	0	0	0	0	506	482	0	504	39	21	
5	0	0	0	0	514	487	0	496	39	23	
6	0	0	0	0	505	487	0	490	39	25	
7	0	0	0	0	508	485	0	486	39	27	
8	0	0	0	0	504	491	0	482	39	28	
9	0	0	0	0	508	496	0	507	39	28	
10	0	0	0	0	513	500	0	511	39	25	
11	0	0	0	0	519	501	0	515	39	22	
12	0	0	0	0	504	499	0	511	39	21	
13	0	0	0	0	499	498	0	501	39	22	
14	0	0	0	0	504	500	0	493	39	25	
15	0	0	0	0	510	503	0	495	39	27	
0	0	0	0	0	509	503	0	510	39	28	
1	0	0	0	0	503	502	0	516	39	28	
2	0	0	0	0	504	499	0	528	39	26	
3	0	0	0	0	512	497	0	540	39	23	
4	0	0	0	0	503	491	0	536	39	21	
5	0	0	0	0	510	491	0	527	39	22	
6	0	0	0	0	509	500	0	539	39	24	
7	0	0	0	0	510	505	0	542	39	26	
8	0	0	0	0	510	499	0	547	39	28	
9	0	0	0	0	505	492	0	519	39	28	
10	0	0	0	0	508	492	0	508	39	27	
11	0	0	0	0	511	492	0	498	39	24	
12	0	0	0	0	504	486	0	492	39	22	
13	0	0	0	0	508	483	0	488	39	21	
14	0	0	0	0	508	484	0	487	39	23	
15	0	0	0	0	506	483	0	487	39	25	
0	0	0	0	0	508	484	0	487	39	27	
1	0	0	0	0	508	487	0	504	39	28	
2	0	0	0	0	508	492	0	527	39	28	
3	0	0	0	0	509	499	0	529	39	25	
4	0	0	0	0	511	505	0	522	39	23	
5	0	0	0	0	508	506	0	511	39	21	
6	0	0	0	0	511	500	0	501	39	22	
7	0	0	0	0	503	504	0	505	39	25	
8	0	0	0	0	510	506	0	517	39	27	
9	0	0	0	0	511	505	0	514	39	28	
10	0	0	0	0	507	502	0	506	39	28	
11	0	0	0	0	512	491	0	499	39	26	
12	0	0	0	0	502	487	0	497	39	23	
13	0	0	0	0	503	488	0	492	39	21	
14	0	0	0	0	506	494	0	490	39	22	
15	0	0	0	0	504	497	0	489	39	24	
0	0	0	0	0	514	504	0	487	39	26	
1	0	0	0	0	502	504	0	497	39	28	
2	0	0	0	0	512	498	0	521	39	28	
3	0	0	0	0	512	494	0	528	39	27	
4	0	0	0	0	511	500	0	524	39	24	
5	0	0	0	0	503	511	0	525	39	22	
6	0	0	0	0	501	519	0	520	39	21	
7	0	0	0	0	515	518	0	520	39	23	
8	0	0	0	0	507	518	0	537	39	25	
9	0	0	0	0	511	508	0	539	39	27	
10	0	0	0	0	511	497	0	529	39	28	
11	0	0	0	0	504	496	0	517	39	28	
12	0	0	0	0	508	498	0	506	39	25	
13	0	0	0	0	506	504	0	499	39	23	
14	0	0	0	0	516	507	0	494	39	21	
15	0	0	0	0	507	508	0	488	39	22	
0	0	0	0	0	512	509	0	496	39	25	
1	0	0	0	0	508	511	0	514	39	27	
2	0	0	0	0	507	508	0	518	39	28	
3	0	0	0	0	507	504	0	513	39	28	
4	0	0	0	0	502	507	0	507	39	26	
5	0	0	0	0	505	507	0	500	39	23	
6	0	0	0	0	506	499	0	498	39	21	
7	0	0	0	0	512	496	0	495	39	22	
8	0	0	0	0	507	498	0	493	39	24	
9	0	0	0	0	508	499	0	509	39	26	
10	0	0	0	0	508	498	0	527	39	28	
11	0	0	0	0	513	496	0	528	39	28	
12	0	0	0	0	509	507	0	523	39	27	
13	0	0	0	0	511	509	0	516	39	24	
14	0	0	0	0	513	504	0	509	39	22	
15	0	0	0	0	508	500	0	514	39	21	
0	0	0	0	0	509	501	0	529	39	23	
1	0	0	0	0	505	509	0	529	39	25	
2	0	0	0	0	508	510	0	524	39	27	
3	0	0	0	0	513	510	0	528	39	28	
4	0	0	0	0	505	508	0	526	39	28	
5	0	0	0	0	509	499	0	522	39	25	
6	0	0	0	0	506	492	0	516	39	23	
7	0	0	0	0	509	494	0	514	39	21	
8	0	0	0	0	502	499	0	511	39	22	
9	0	0	0	0	511	504	0	509	39	25	
10	0	0	0	0	512	506	0	515	39	27	
11	0	0	0	0	508	506	0	543	39	28	
12	0	0	0	0	504	503	0	555	39	28	
13	0	0	0	0	511	500	0	552	39	26	
14	0	0	0	0	511	500	0	542	39	24	
15	0	0	0	0	508	500	0	534	39	21	
0	0	0	0	0	507	500	0	527	39	22	
1	0	0	0	0	511	506	0	543	39	24	
2	0	0	0	0	513	516	0	552	39	26	
3	0	0	0	0	509	518	0	544	39	28	
4	0	0	0	0	507	513	0	534	39	28	
5	0	0	0	0	508	511	0	525	39	27	
6	0	0	0	0	505	512	0	518	39	24	
7	0	0	0	0	510	513	0	529	39	22	
8	0	0	0	0	509	510	0	537	39	21	
9	0	0	0	0	511	508	0	532	39	23	
10	0	0	0	0	510	512	0	526	39	25	
11	0	0	0	0	509	513	0	518	39	27	
12	0	0	0	0	507	508	0	513	39	28	
13	0	0	0	0	511	511	0	509	39	28	
14	0	0	0	0	505	513	0	508	39	25	
15	0	0	0	0	504	516	0	506	39	23	
0	0	0	0	0	504	511	0	507	39	21	
1	0	0	0	0	503	508	0	524	39	22	
2	0	0	0	0	504	510	0	547	39	25	
3	0	0	0	0	510	512	0	552	39	27	
4	0	0	0	0	509	513	0	546	39	28	
5	0	0	0	0	510	514	0	536	39	28	
6	0	0	0	0	506	507	0	537	39	26	
7	0	0	0	0	519	505	0	545	39	24	
8	0	0	0	0	512	505	0	562	39	21	
9	0	0	0	0	509	503	0	559	39	22	
10	0	0	0	0	511	492	0	549	39	24	
11	0	0	0	0	511	484	0	536	39	26	
12	0	0	0	0	509	494	0	526	39	28	
13	0	0	0	0	505	508	0	521	39	28	
14	0	0	0	0	506	516	0	513	39	27	
15	0	0	0	0	511	521	0	510	39	24	
0	0	0	0	0	500	524	0	507	39	22	
1	0	0	0	0	506	521	0	516	39	21	
2	0	0	0	0	503	517	0	540	39	23	
3	0	0	0	0	507	514	0	547	39	25	
4	0	0	0	0	515	513	0	543	39	27	
5	0	0	0	0	507	508	0	534	39	28	
6	0	0	0	0	510	506	0	540	39	28	
7	0	0	0	0	511	508	0	524	39	25	
8	0	0	0	0	506	504	0	539	39	23	
9	0	0	0	0	510	505	0	537	39	21	
10	0	0	0	0	507	512	0	530	39	22	
11	0	0	0	0	505	519	0	522	39	25	
12	0	0	0	0	508	521	0	515	39	27	
13	0	0	0	0	502	522	0	510	39	28	
14	0	0	0	0	512	524	0	506	39	28	
15	0	0	0	0	508	523	0	504	39	26	
0	0	0	0	0	511	522	0	513	39	24	
1	0	0	0	0	512	518	0	529	39	21	
2	0	0	0	0	507	517	0	532	39	22	
3	0	0	0	0	508	519	0	528	39	24	
4	0	0	0	0	508	515	0	531	39	26	
5	0	0	0	0	502	510	0	526	39	28	
6	0	0	0	0	509	505	0	520	39	28	
7	0	0	0	0	504	509	0	512	39	27	
8	0	0	0	0	505	515	0	505	39	24	
9	0	0	0	0	513	515	0	499	39	22	
10	0	0	0	0	509	513	0	509	39	21	
11	0	0	0	0	506	515	0	530	39	23	
12	0	0	0	0	509	517	0	534	38	25	
13	0	0	0	0	508	520	0	526	39	27	
14	0	0	0	0	508	523	0	535	39	28	
15	0	0	0	0	502	520	0	545	39	28	
0	0	0	0	0	507	517	0	539	39	25	
1	0	0	0	0	508	503	0	527	39	23	
2	0	0	0	0	504	490	0	513	39	21	
3	0	0	0	0	503	487	0	502	39	22	
4	0	0	0	0	507	491	0	495	39	25	
5	0	0	0	0	511	497	0	492	39	27	
6	0	0	0	0	506	505	0	491	39	28	
7	0	0	0	0	510	509	0	491	39	28	
8	0	0	0	0	507	508	0	489	39	26	
9	0	0	0	0	511	511	0	501	39	24	
10	0	0	0	0	506	515	0	526	39	21	
11	0	0	0	0	509	509	0	534	39	22	
12	0	0	0	0	507	504	0	528	39	24	
13	0	0	0	0	516	505	0	526	39	26	
14	0	0	0	0	514	509	0	508	39	28	
15	0	0	0	0	508	512	0	504	39	28	
0	0	0	0	0	510	510	0	518	39	27	
1	0	0	0	0	508	509	0	519	39	24	
2	0	0	0	0	507	503	0	512	39	22	
3	0	0	0	0	508	500	0	514	39	21	
4	0	0	0	0	507	502	0	515	38	23	
5	0	0	0	0	509	504	0	510	39	25	
6	0	0	0	0	510	506	0	505	39	27	
7	0	0	0	0	509	507	0	507	39	28	
8	0	0	0	0	504	508	0	494	39	28	
9	0	0	0	0	505	511	0	497	39	26	
10	0	0	0	0	507	513	0	518	39	23	
11	0	0	0	0	510	518	0	523	39	21	
12	0	0	0	0	506	515	0	517	39	22	
13	0	0	0	0	507	515	0	506	39	25	
14	0	0	0	0	513	519	0	497	39	27	
15	0	0	0	0	505	521	0	492	39	28	
0	0	0	0	0	502	519	0	486	39	28	
1	0	0	0	0	504	523	0	499	39	26	
2	0	0	0	0	509	526	0	519	39	24	
3	0	0	0	0	511	515	0	521	39	21	
4	0	0	0	0	507	507	0	515	39	22	
5	0	0	0	0	512	500	0	517	39	24	
6	0	0	0	0	510	502	0	495	39	26	
7	0	0	0	0	509	506	0	499	39	28	
8	0	0	0	0	507	510	0	510	39	28	
9	0	0	0	0	504	508	0	506	39	27	
10	0	0	0	0	510	504	0	500	39	25	
11	0	0	0	0	509	505	0	492	39	22	
12	0	0	0	0	505	511	0	486	39	21	
13	0	0	0	0	508	516	0	481	39	23	
14	0	0	0	0	503	517	0	480	39	25	
15	0	0	0	0	513	519	0	479	39	27	
0	0	0	0	0	511	519	0	476	39	28	
1	0	0	0	0	507	510	0	486	39	28	
2	0	0	0	0	505	504	0	512	39	25	
3	0	0	0	0	505	503	0	518	39	23	
4	0	0	0	0	505	500	0	511	39	21	
5	0	0	0	0	511	497	0	501	39	22	
6	0	0	0	0	512	496	0	502	39	25	
7	0	0	0	0	508	496	0	506	39	27	
8	0	0	0	0	503	497	0	525	39	28	
9	0	0	0	0	505	496	0	526	39	28	
10	0	0	0	0	509	499	0	514	39	26	
11	0	0	0	0	508	504	0	499	39	24	
12	0	0	0	0	518	507	0	491	39	21	
13	0	0	0	0	512	509	0	481	39	22	
14	0	0	0	0	506	516	0	475	39	24	
15	0	0	0	0	509	523	0	471	39	26	
0	0	0	0	0	501	526	0	479	39	28	
1	0	0	0	0	510	524	0	495	39	28	
2	0	0	0	0	502	523	0	498	39	27	
3	0	0	0	0	504	511	0	494	39	25	
4	0	0	0	0	509	507	0	486	39	22	
5	0	0	0	0	510	505	0	480	39	21	
6	0	0	0	0	512	500	0	475	39	23	
7	0	0	0	0	506	502	0	473	39	25	
8	0	0	0	0	510	507	0	471	39	27	
9	0	0	0	0	510	509	0	487	39	28	
10	0	0	0	0	511	517	0	503	39	28	
11	0	0	0	0	499	521	0	511	39	26	
12	0	0	0	0	511	521	0	531	38	23	
13	0	0	0	0	512	515	0	532	39	21	
14	0	0	0	0	507	515	0	538	39	22	
15	0	0	0	0	508	518	0	540	39	25	
0	0	0	0	0	509	515	0	526	39	27	
1	0	0	0	0	505	510	0	513	39	28	
2	0	0	0	0	508	505	0	509	39	28	
3	0	0	0	0	509	504	0	500	39	26	
4	0	0	0	0	508	507	0	491	39	24	
5	0	0	0	0	504	510	0	486	39	21	
6	0	0	0	0	508	511	0	480	39	22	
7	0	0	0	0	509	510	0	474	39	24	
8	0	0	0	0	511	509	0	471	39	26	
9	0	0	0	0	511	509	0	470	39	28	
10	0	0	0	0	506	508	0	469	39	28	
11	0	0	0	0	504	506	0	472	39	27	
12	0	0	0	0	508	506	0	495	39	25	
13	0	0	0	0	511	509	0	510	39	22	
14	0	0	0	0	507	509	0	509	39	21	
15	0	0	0	0	500	504	0	509	39	23	
0	0	0	0	0	508	505	0	527	39	25	
1	0	0	0	0	505	516	0	529	39	27	
2	0	0	0	0	510	520	0	519	39	28	
3	0	0	0	0	505	515	0	509	39	28	
4	0	0	0	0	507	513	0	501	39	26	
5	0	0	0	0	509	517	0	495	39	23	
6	0	0	0	0	518	522	0	487	39	21	
7	0	0	0	0	519	523	0	484	39	22	
8	0	0	0	0	511	517	0	494	39	25	
9	0	0	0	0	504	510	0	512	39	27	
10	0	0	0	0	510	509	0	515	39	28	
11	0	0	0	0	510	517	0	507	39	28	
12	0	0	0	0	510	523	0	497	39	26	
13	0	0	0	0	505	521	0	489	39	24	
14	0	0	0	0	508	510	0	487	39	21	
15	0	0	0	0	508	499	0	481	39	22	
0	0	0	0	0	504	496	0	471	39	24	
1	0	0	0	0	514	504	0	468	39	26	
2	0	0	0	0	506	512	0	468	39	28	
3	0	0	0	0	511	513	0	470	39	28	
4	0	0	0	0	502	510	0	472	39	27	
5	0	0	0	0	508	508	0	475	39	25	
6	0	0	0	0	513	507	0	475	39	22	
7	0	0	0	0	509	506	0	474	39	21	
8	0	0	0	0	509	502	0	470	39	23	
9	0	0	0	0	512	502	0	468	39	25	
10	0	0	0	0	509	504	0	472	39	27	
11	0	0	0	0	511	501	0	472	39	28	
12	0	0	0	0	504	498	0	472	39	28	
13	0	0	0	0	506	497	0	472	39	26	
14	0	0	0	0	506	498	0	476	39	23	
15	0	0	0	0	507	494	0	476	39	21	
0	0	0	0	0	505	498	0	472	39	22	
1	0	0	0	0	507	504	0	483	39	25	
2	0	0	0	0	508	508	0	510	39	27	
3	0	0	0	0	510	510	0	520	39	28	
4	0	0	0	0	515	509	0	516	39	28	
5	0	0	0	0	505	512	0	508	39	26	
6	0	0	0	0	510	509	0	499	39	24	
7	0	0	0	0	518	504	0	509	39	21	
8	0	0	0	0	508	508	0	484	39	22	
9	0	0	0	0	508	511	0	478	39	24	
10	0	0	0	0	504	508	0	474	39	26	
11	0	0	0	0	507	504	0	489	39	28	
12	0	0	0	0	502	503	0	515	39	28	
13	0	0	0	0	510	499	0	528	39	27	
14	0	0	0	0	505	493	0	550	39	25	
15	0	0	0	0	510	490	0	563	39	22	
0	0	0	0	0	508	489	0	556	39	21	
1	0	0	0	0	511	499	0	543	39	23	
2	0	0	0	0	507	511	0	531	39	25	
3	0	0	0	0	507	517	0	543	39	27	
4	0	0	0	0	511	519	0	549	39	28	
5	0	0	0	0	507	519	0	556	39	28	
6	0	0	0	0	512	514	0	569	39	26	
7	0	0	0	0	505	508	0	563	39	23	
8	0	0	0	0	510	504	0	571	39	21	
9	0	0	0	0	510	507	0	571	39	22	
10	0	0	0	0	506	510	0	567	39	24	
11	0	0	0	0	502	512	0	558	39	27	
12	0	0	0	0	508	512	0	543	39	28	
13	0	0	0	0	499	514	0	529	39	28	
14	0	0	0	0	510	518	0	518	39	26	
15	0	0	0	0	511	521	0	510	39	24	
0	0	0	0	0	508	524	0	505	39	21	
1	0	0	0	0	508	524	0	504	39	22	
2	0	0	0	0	515	522	0	503	39	24	
3	0	0	0	0	503	514	0	522	39	26	
4	0	0	0	0	500	509	0	542	39	28	
5	0	0	0	0	504	511	0	544	39	28	
6	0	0	0	0	510	516	0	543	39	27	
7	0	0	0	0	513	515	0	558	39	25	
8	0	0	0	0	504	511	0	562	39	22	
9	0	0	0	0	512	512	0	553	39	21	
10	0	0	0	0	509	511	0	542	39	23	
11	0	0	0	0	505	504	0	531	39	25	
12	0	0	0	0	501	502	0	523	39	27	
13	0	0	0	0	509	504	0	516	39	28	
14	0	0	0	0	507	510	0	512	39	28	
15	0	0	0	0	511	509	0	511	39	26	
0	0	0	0	0	510	508	0	511	39	23	
1	0	0	0	0	512	511	0	533	39	21	
2	0	0	0	0	505	515	0	549	39	22	
3	0	0	0	0	503	521	0	549	39	24	
4	0	0	0	0	512	519	0	547	39	27	
5	0	0	0	0	504	514	0	547	39	28	
6	0	0	0	0	513	508	0	541	39	28	
7	0	0	0	0	508	508	0	550	39	27	
8	0	0	0	0	508	511	0	561	39	24	
9	0	0	0	0	509	511	0	556	39	21	
10	0	0	0	0	514	508	0	546	39	22	
11	0	0	0	0	505	508	0	533	39	24	
12	0	0	0	0	508	509	0	524	39	26	
13	0	0	0	0	507	512	0	516	39	28	
14	0	0	0	0	502	514	0	511	39	28	
15	0	0	0	0	512	516	0	509	39	27	
0	0	0	0	0	512	514	0	508	39	25	
1	0	0	0	0	507	513	0	524	39	22	
2	0	0	0	0	513	512	0	545	39	21	
3	0	0	0	0	510	515	0	546	39	23	
4	0	0	0	0	502	516	0	540	39	25	
5	0	0	0	0	511	516	0	529	39	27	
6	0	0	0	0	510	515	0	519	39	28	
7	0	0	0	0	508	516	0	524	39	28	
8	0	0	0	0	511	513	0	537	39	26	
9	0	0	0	0	506	510	0	533	39	23	
10	0	0	0	0	504	507	0	526	39	21	
11	0	0	0	0	509	507	0	519	39	22	
12	0	0	0	0	505	513	0	513	39	24	
13	0	0	0	0	506	512	0	508	39	27	
14	0	0	0	0	503	506	0	506	39	28	
15	0	0	0	0	505	502	0	504	39	28	
0	0	0	0	0	507	500	0	501	39	27	
1	0	0	0	0	510	508	0	510	39	24	
2	0	0	0	0	514	517	0	532	39	21	
3	0	0	0	0	509	526	0	538	39	22	
4	0	0	0	0	513	528	0	533	39	24	
5	0	0	0	0	507	526	0	535	39	26	
6	0	0	0	0	507	531	0	529	39	28	
7	0	0	0	0	509	536	0	529	39	28	
8	0	0	0	0	506	538	0	547	39	27	
9	0	0	0	0	503	536	0	556	39	25	
10	0	0	0	0	508	534	0	548	39	22	
11	0	0	0	0	507	529	0	530	39	21	
12	0	0	0	0	517	526	0	518	39	23	
13	0	0	0	0	504	523	0	507	39	25	
14	0	0	0	0	505	519	0	499	39	27	
15	0	0	0	0	508	519	0	495	39	28	
0	0	0	0	0	513	522	0	503	39	28	
1	0	0	0	0	513	524	0	519	39	26	
2	0	0	0	0	515	529	0	523	39	23	
3	0	0	0	0	516	536	0	518	39	21	
4	0	0	0	0	506	544	0	512	39	22	
5	0	0	0	0	508	550	0	505	39	24	
6	0	0	0	0	506	544	0	499	39	27	
7	0	0	0	0	504	531	0	495	39	28	
8	0	0	0	0	500	516	0	492	39	28	
9	0	0	0	0	509	519	0	508	39	26	
10	0	0	0	0	508	525	0	527	39	24	
11	0	0	0	0	507	524	0	530	39	21	
12	0	0	0	0	508	526	0	532	39	21	
13	0	0	0	0	510	528	0	517	39	24	
14	0	0	0	0	513	526	0	510	39	26	
15	0	0	0	0	507	525	0	515	39	28	
0	0	0	0	0	505	526	0	528	39	28	
1	0	0	0	0	511	521	0	529	39	27	
2	0	0	0	0	507	514	0	524	39	25	
3	0	0	0	0	509	513	0	527	39	22	
4	0	0	0	0	508	506	0	523	39	21	
5	0	0	0	0	507	499	0	515	39	23	
6	0	0	0	0	508	494	0	508	39	25	
7	0	0	0	0	503	495	0	500	39	27	
8	0	0	0	0	510	500	0	496	39	28	
9	0	0	0	0	507	505	0	496	39	28	
10	0	0	0	0	501	512	0	500	39	26	
11	0	0	0	0	510	515	0	525	39	23	
12	0	0	0	0	511	511	0	536	39	21	
13	0	0	0	0	515	504	0	531	39	22	
14	0	0	0	0	511	504	0	535	39	24	
15	0	0	0	0	508	511	0	547	39	27	
0	0	0	0	0	503	510	0	539	39	28	
1	0	0	0	0	511	503	0	522	39	28	
2	0	0	0	0	510	501	0	506	39	27	
3	0	0	0	0	510	506	0	496	39	24	
4	0	0	0	0	508	509	0	489	39	21	
5	0	0	0	0	510	513	0	485	39	21	
6	0	0	0	0	509	519	0	484	39	24	
7	0	0	0	0	501	519	0	479	39	26	
8	0	0	0	0	510	511	0	486	39	28	
9	0	0	0	0	512	491	0	472	39	28	
10	0	0	0	0	506	478	0	473	39	27	
11	0	0	0	0	507	478	0	476	39	25	
12	0	0	0	0	507	486	0	476	39	22	
13	0	0	0	0	511	495	0	491	39	21	
14	0	0	0	0	505	497	0	516	39	23	
15	0	0	0	0	504	503	0	522	39	25	
0	0	0	0	0	511	508	0	539	39	27	
1	0	0	0	0	513	506	0	544	39	28	
2	0	0	0	0	510	500	0	535	39	28	
3	0	0	0	0	506	497	0	528	39	26	
4	0	0	0	0	510	498	0	524	39	23	
5	0	0	0	0	497	504	0	514	39	21	
6	0	0	0	0	512	506	0	503	39	22	
7	0	0	0	0	515	507	0	494	39	24	
8	0	0	0	0	504	508	0	487	39	27	
9	0	0	0	0	513	508	0	486	39	28	
10	0	0	0	0	511	506	0	507	39	28	
11	0	0	0	0	505	507	0	516	39	27	
12	0	0	0	0	507	503	0	514	39	24	
13	0	0	0	0	508	502	0	508	39	21	
14	0	0	0	0	509	502	0	501	39	21	
15	0	0	0	0	513	505	0	493	39	24	
0	0	0	0	0	512	509	0	486	39	26	
1	0	0	0	0	506	504	0	493	39	28	
2	0	0	0	0	507	500	0	513	39	28	
3	0	0	0	0	507	495	0	516	39	27	
4	0	0	0	0	508	489	0	510	39	25	
5	0	0	0	0	506	493	0	500	39	22	
6	0	0	0	0	508	501	0	491	39	21	
7	0	0	0	0	510	495	0	491	39	23	
8	0	0	0	0	511	490	0	509	39	25	
9	0	0	0	0	503	487	0	512	39	27	
10	0	0	0	0	508	491	0	507	39	28	
11	0	0	0	0	507	496	0	498	39	28	
12	0	0	0	0	504	495	0	490	39	26	
13	0	0	0	0	503	496	0	482	39	23	
14	0	0	0	0	502	498	0	476	39	21	
15	0	0	0	0	508	496	0	472	39	22	
0	0	0	0	0	506	495	0	480	39	24	
1	0	0	0	0	512	495	0	496	39	26	
2	0	0	0	0	515	496	0	500	39	28	
3	0	0	0	0	508	501	0	495	39	28	
4	0	0	0	0	504	500	0	487	39	27	
5	0	0	0	0	514	490	0	490	39	24	
6	0	0	0	0	511	488	0	491	39	21	
7	0	0	0	0	503	495	0	491	39	21	
8	0	0	0	0	507	505	0	510	39	24	
9	0	0	0	0	504	511	0	520	39	26	
10	0	0	0	0	507	518	0	515	39	28	
11	0	0	0	0	503	524	0	505	39	28	
12	0	0	0	0	511	529	0	501	39	27	
13	0	0	0	0	508	537	0	491	39	25	
14	0	0	0	0	508	550	0	483	39	22	
15	0	0	0	0	510	565	0	481	39	21	
0	0	0	0	0	512	572	0	482	39	23	
1	0	0	0	0	515	579	0	484	39	25	
2	0	0	0	0	507	595	0	506	39	27	
3	0	0	0	0	511	615	0	521	39	28	
4	0	0	0	0	508	634	0	520	39	28	
5	0	0	0	0	504	642	0	515	39	26	
6	0	0	0	0	510	653	0	508	39	23	
7	0	0	0	0	510	670	0	502	39	21	
8	0	0	0	0	506	680	0	510	39	22	
9	0	0	0	0	511	688	0	521	39	24	
10	0	0	0	0	506	698	0	519	39	26	
11	0	0	0	0	505	704	0	513	39	28	
12	0	0	0	0	509	706	0	508	39	28	
13	0	0	0	0	513	710	0	501	39	27	
14	0	0	0	0	509	728	0	496	39	24	
15	0	0	0	0	507	739	0	490	39	21	
0	0	0	0	0	508	741	0	490	39	21	
1	0	0	0	0	506	732	0	510	39	24	
2	0	0	0	0	508	719	0	526	39	26	
3	0	0	0	0	511	717	0	526	39	28	
4	0	0	0	0	505	714	0	527	39	28	
5	0	0	0	0	512	707	0	528	39	27	
6	0	0	0	0	501	695	0	521	39	25	
7	0	0	0	0	509	675	0	532	39	22	
8	0	0	0	0	505	658	0	542	39	21	
9	0	0	0	0	507	646	0	539	39	23	
10	0	0	0	0	508	629	0	529	39	25	
11	0	0	0	0	506	612	0	519	39	27	
12	0	0	0	0	508	595	0	511	39	28	
13	0	0	0	0	504	579	0	504	39	28	
14	0	0	0	0	504	559	0	499	39	26	
15	0	0	0	0	498	539	0	497	39	23	
0	0	0	0	0	504	518	0	495	39	21	
1	0	0	0	0	516	497	0	512	39	22	
2	0	0	0	0	514	480	0	534	39	24	
3	0	0	0	0	508	462	0	536	39	26	
4	0	0	0	0	511	447	0	529	39	28	
5	0	0	0	0	516	443	0	519	39	28	
6	0	0	0	0	505	438	0	510	39	27	
7	0	0	0	0	507	431	0	514	39	24	
8	0	0	0	0	508	429	0	526	39	21	
9	0	0	0	0	511	429	0	522	39	21	
10	0	0	0	0	508	429	0	513	39	24	
11	0	0	0	0	516	428	0	505	39	26	
12	0	0	0	0	505	430	0	497	39	28	
13	0	0	0	0	508	427	0	494	39	28	
14	0	0	0	0	508	425	0	508	39	27	
15	0	0	0	0	503	423	0	492	39	25	
0	0	0	0	0	508	423	0	491	39	22	
1	0	0	0	0	508	423	0	502	39	21	
2	0	0	0	0	507	419	0	527	39	23	
3	0	0	0	0	512	413	0	531	39	25	
4	0	0	0	0	511	416	0	525	39	27	
5	0	0	0	0	507	432	0	515	39	28	
6	0	0	0	0	505	440	0	516	39	28	
7	0	0	0	0	506	440	0	521	39	26	
8	0	0	0	0	506	436	0	542	39	23	
9	0	0	0	0	506	437	0	547	39	21	
10	0	0	0	0	506	441	0	538	39	22	
11	0	0	0	0	510	445	0	523	39	24	
12	0	0	0	0	502	449	0	513	39	26	
13	0	0	0	0	507	449	0	503	39	28	
14	0	0	0	0	515	449	0	496	39	28	
15	0	0	0	0	514	456	0	491	39	27	
0	0	0	0	0	511	458	0	500	39	24	
1	0	0	0	0	508	452	0	520	39	21	
2	0	0	0	0	501	451	0	523	39	21	
3	0	0	0	0	500	457	0	518	39	24	
4	0	0	0	0	513	461	0	512	39	26	
5	0	0	0	0	511	461	0	505	39	28	
6	0	0	0	0	508	460	0	501	39	28	
7	0	0	0	0	511	458	0	498	39	27	
8	0	0	0	0	503	452	0	497	39	25	
9	0	0	0	0	509	457	0	514	39	22	
10	0	0	0	0	511	460	0	533	39	21	
11	0	0	0	0	510	462	0	536	39	23	
12	0	0	0	0	519	466	0	532	39	25	
13	0	0	0	0	502	461	0	524	39	27	
14	0	0	0	0	506	457	0	516	39	28	
15	0	0	0	0	504	462	0	521	39	28	
0	0	0	0	0	504	464	0	536	39	26	
1	0	0	0	0	508	466	0	534	39	23	
2	0	0	0	0	507	467	0	543	39	21	
3	0	0	0	0	512	467	0	519	39	22	
4	0	0	0	0	505	468	0	519	39	24	
5	0	0	0	0	514	462	0	519	39	26	
6	0	0	0	0	509	457	0	514	39	28	
7	0	0	0	0	506	460	0	509	39	28	
8	0	0	0	0	506	469	0	504	39	27	
9	0	0	0	0	505	476	0	500	39	24	
10	0	0	0	0	508	478	0	498	39	21	
11	0	0	0	0	510	481	0	499	39	21	
12	0	0	0	0	504	483	0	523	38	24	
13	0	0	0	0	513	484	0	536	39	26	
14	0	0	0	0	504	485	0	534	39	28	
15	0	0	0	0	508	491	0	534	39	28	
0	0	0	0	0	512	495	0	549	39	27	
1	0	0	0	0	506	496	0	549	39	25	
2	0	0	0	0	510	494	0	538	39	22	
3	0	0	0	0	512	483	0	527	39	21	
4	0	0	0	0	504	469	0	516	39	23	
5	0	0	0	0	506	464	0	506	39	25	
6	0	0	0	0	504	468	0	498	39	27	
7	0	0	0	0	511	472	0	494	39	28	
8	0	0	0	0	508	476	0	503	39	28	
9	0	0	0	0	509	479	0	519	39	26	
10	0	0	0	0	507	483	0	524	39	23	
11	0	0	0	0	514	488	0	541	39	21	
12	0	0	0	0	508	493	0	545	39	22	
13	0	0	0	0	507	485	0	536	39	24	
14	0	0	0	0	505	483	0	530	39	26	
15	0	0	0	0	507	487	0	541	39	28	
0	0	0	0	0	512	487	0	538	39	28	
1	0	0	0	0	500	487	0	526	39	27	
2	0	0	0	0	512	487	0	520	39	24	
3	0	0	0	0	505	491	0	518	39	21	
4	0	0	0	0	514	491	0	512	39	21	
5	0	0	0	0	506	488	0	504	39	24	
6	0	0	0	0	507	484	0	498	39	26	
7	0	0	0	0	515	484	0	492	39	28	
8	0	0	0	0	505	482	0	490	39	28	
9	0	0	0	0	508	486	0	492	39	27	
10	0	0	0	0	507	490	0	515	39	25	
11	0	0	0	0	507	490	0	528	39	22	
12	0	0	0	0	505	490	0	525	39	21	
13	0	0	0	0	514	492	0	518	39	23	
14	0	0	0	0	510	502	0	509	39	25	
15	0	0	0	0	501	512	0	503	39	27	
0	0	0	0	0	511	519	0	512	39	28	
1	0	0	0	0	506	514	0	524	39	28	
2	0	0	0	0	503	508	0	523	39	26	
3	0	0	0	0	513	503	0	517	39	23	
4	0	0	0	0	506	497	0	511	39	21	
5	0	0	0	0	507	497	0	503	39	22	
6	0	0	0	0	504	506	0	496	39	24	
7	0	0	0	0	509	510	0	492	39	26	
8	0	0	0	0	515	505	0	487	39	28	
9	0	0	0	0	506	486	0	481	39	28	
10	0	0	0	0	504	478	0	497	39	27	
11	0	0	0	0	506	478	0	519	39	24	
12	0	0	0	0	509	480	0	524	39	21	
13	0	0	0	0	510	483	0	521	39	21	
14	0	0	0	0	509	491	0	537	39	24	
15	0	0	0	0	507	498	0	539	39	26	
0	0	0	0	0	508	504	0	526	39	27	
1	0	0	0	0	508	507	0	521	39	28	
2	0	0	0	0	510	507	0	520	39	27	
3	0	0	0	0	508	507	0	513	39	25	
4	0	0	0	0	512	508	0	505	38	22	
5	0	0	0	0	507	508	0	498	39	21	
6	0	0	0	0	510	507	0	494	39	23	
7	0	0	0	0	510	505	0	491	39	25	
8	0	0	0	0	513	503	0	488	39	27	
9	0	0	0	0	509	500	0	484	39	28	
10	0	0	0	0	508	498	0	482	39	28	
11	0	0	0	0	502	497	0	483	39	26	
12	0	0	0	0	502	502	0	484	38	23	
13	0	0	0	0	506	506	0	505	39	21	
14	0	0	0	0	505	515	0	521	39	22	
15	0	0	0	0	507	519	0	532	39	24	
0	0	0	0	0	512	517	0	545	39	26	
1	0	0	0	0	515	513	0	537	39	28	
2	0	0	0	0	504	518	0	523	39	28	
3	0	0	0	0	508	520	0	508	39	27	
4	0	0	0	0	506	525	0	497	39	24	
5	0	0	0	0	514	527	0	489	39	21	
6	0	0	0	0	511	527	0	484	39	21	
7	0	0	0	0	508	524	0	480	39	24	
8	0	0	0	0	503	513	0	476	39	26	
9	0	0	0	0	504	505	0	485	39	27	
10	0	0	0	0	504	507	0	506	39	28	
11	0	0	0	0	512	513	0	511	39	27	
12	0	0	0	0	516	518	0	505	39	25	
13	0	0	0	0	504	525	0	495	39	22	
14	0	0	0	0	506	527	0	488	39	21	
15	0	0	0	0	503	526	0	489	39	23	
0	0	0	0	0	514	530	0	512	39	25	
1	0	0	0	0	508	535	0	511	39	27	
2	0	0	0	0	507	536	0	504	39	28	
3	0	0	0	0	506	536	0	504	39	28	
4	0	0	0	0	505	523	0	500	39	26	
5	0	0	0	0	506	505	0	494	39	23	
6	0	0	0	0	513	496	0	487	39	21	
7	0	0	0	0	510	501	0	481	39	22	
8	0	0	0	0	506	510	0	476	39	24	
9	0	0	0	0	507	516	0	479	39	26	
10	0	0	0	0	508	522	0	500	39	28	
11	0	0	0	0	508	523	0	505	39	28	
12	0	0	0	0	513	519	0	497	39	27	
13	0	0	0	0	508	521	0	486	39	24	
14	0	0	0	0	503	526	0	476	39	21	
15	0	0	0	0	504	529	0	468	39	21	
0	0	0	0	0	503	528	0	458	39	23	
1	0	0	0	0	509	529	0	450	39	26	
2	0	0	0	0	509	530	0	448	39	27	
3	0	0	0	0	516	536	0	448	39	28	
4	0	0	0	0	508	539	0	456	39	27	
5	0	0	0	0	507	542	0	451	39	25	
6	0	0	0	0	508	538	0	451	39	22	
7	0	0	0	0	510	529	0	450	39	21	
8	0	0	0	0	508	521	0	448	39	23	
9	0	0	0	0	511	527	0	445	39	25	
10	0	0	0	0	504	535	0	445	39	27	
11	0	0	0	0	505	544	0	448	39	28	
12	0	0	0	0	511	550	0	451	39	28	
13	0	0	0	0	512	550	0	455	39	26	
14	0	0	0	0	508	549	0	459	39	23	
15	0	0	0	0	509	550	0	458	39	21	
0	0	0	0	0	503	548	0	455	39	22	
1	0	0	0	0	506	548	0	454	39	24	
2	0	0	0	0	504	548	0	477	39	26	
3	0	0	0	0	503	548	0	493	39	28	
4	0	0	0	0	504	550	0	507	39	28	
5	0	0	0	0	506	553	0	504	39	27	
6	0	0	0	0	514	556	0	497	39	24	
7	0	0	0	0	506	561	0	489	39	21	
8	0	0	0	0	504	566	0	482	39	21	
9	0	0	0	0	514	568	0	500	39	23	
10	0	0	0	0	512	566	0	511	39	26	
11	0	0	0	0	505	562	0	522	39	27	
12	0	0	0	0	506	556	0	542	39	28	
13	0	0	0	0	511	547	0	545	39	27	
14	0	0	0	0	508	536	0	556	39	25	
15	0	0	0	0	513	543	0	563	39	22	
0	0	0	0	0	512	550	0	547	39	21	
1	0	0	0	0	505	556	0	552	39	23	
2	0	0	0	0	512	561	0	543	39	25	
3	0	0	0	0	504	565	0	527	39	27	
4	0	0	0	0	506	563	0	512	39	28	
5	0	0	0	0	509	559	0	499	39	28	
6	0	0	0	0	504	558	0	492	39	26	
7	0	0	0	0	508	557	0	487	39	23	
8	0	0	0	0	509	557	0	485	39	21	
9	0	0	0	0	513	555	0	484	39	22	
10	0	0	0	0	512	550	0	495	39	24	
11	0	0	0	0	511	550	0	519	39	26	
12	0	0	0	0	505	546	0	524	39	28	
13	0	0	0	0	512	547	0	522	39	28	
14	0	0	0	0	502	551	0	529	39	27	
15	0	0	0	0	511	551	0	537	39	24	
0	0	0	0	0	508	548	0	529	39	21	
1	0	0	0	0	504	543	0	521	39	21	
2	0	0	0	0	511	536	0	519	39	23	
3	0	0	0	0	509	533	0	512	39	26	
4	0	0	0	0	509	537	0	503	39	27	
5	0	0	0	0	514	545	0	494	39	28	
6	0	0	0	0	514	548	0	488	39	27	
7	0	0	0	0	501	547	0	485	39	25	
8	0	0	0	0	502	544	0	482	39	22	
9	0	0	0	0	509	543	0	483	39	21	
10	0	0	0	0	506	543	0	485	39	23	
11	0	0	0	0	508	543	0	488	39	25	
12	0	0	0	0	511	542	0	512	39	27	
13	0	0	0	0	510	540	0	529	39	28	
14	0	0	0	0	509	541	0	541	39	28	
15	0	0	0	0	505	539	0	556	39	26	
0	0	0	0	0	509	539	0	553	39	23	
1	0	0	0	0	512	540	0	537	39	21	
2	0	0	0	0	506	542	0	523	39	22	
3	0	0	0	0	510	540	0	510	39	24	
4	0	0	0	0	514	534	0	503	39	26	
5	0	0	0	0	510	534	0	497	39	28	
6	0	0	0	0	508	529	0	492	39	28	
7	0	0	0	0	508	529	0	489	39	27	
8	0	0	0	0	508	524	0	498	39	24	
9	0	0	0	0	512	508	0	516	39	21	
10	0	0	0	0	504	492	0	520	39	21	
11	0	0	0	0	509	493	0	516	39	23	
12	0	0	0	0	504	492	0	510	39	26	
13	0	0	0	0	507	487	0	518	39	27	
14	0	0	0	0	512	486	0	499	39	28	
15	0	0	0	0	506	487	0	497	39	27	
0	0	0	0	0	504	489	0	494	39	25	
1	0	0	0	0	503	490	0	510	39	22	
2	0	0	0	0	504	488	0	531	39	21	
3	0	0	0	0	508	489	0	535	39	23	
4	0	0	0	0	517	489	0	528	39	25	
5	0	0	0	0	511	479	0	519	39	27	
6	0	0	0	0	505	468	0	520	39	28	
7	0	0	0	0	512	466	0	529	39	28	
8	0	0	0	0	504	476	0	545	39	26	
9	0	0	0	0	499	482	0	544	39	23	
10	0	0	0	0	507	481	0	535	39	21	
11	0	0	0	0	512	475	0	523	39	22	
12	0	0	0	0	509	469	0	513	39	24	
13	0	0	0	0	511	466	0	504	39	26	
14	0	0	0	0	514	464	0	498	39	28	
15	0	0	0	0	512	461	0	494	39	28	
0	0	0	0	0	506	461	0	492	39	27	
1	0	0	0	0	508	459	0	502	39	24	
2	0	0	0	0	508	454	0	526	39	21	
3	0	0	0	0	506	454	0	534	39	21	
4	0	0	0	0	505	459	0	529	39	23	
5	0	0	0	0	504	460	0	520	39	26	
6	0	0	0	0	504	458	0	512	39	27	
7	0	0	0	0	508	458	0	513	39	28	
8	0	0	0	0	507	461	0	531	39	27	
9	0	0	0	0	508	464	0	536	39	25	
10	0	0	0	0	514	463	0	532	39	22	
11	0	0	0	0	509	459	0	526	39	21	
12	0	0	0	0	502	459	0	518	39	23	
13	0	0	0	0	507	458	0	512	39	25	
14	0	0	0	0	512	460	0	519	39	27	
15	0	0	0	0	509	459	0	504	39	28	
0	0	0	0	0	510	460	0	514	39	28	
1	0	0	0	0	502	462	0	530	39	26	
2	0	0	0	0	510	463	0	533	39	23	
3	0	0	0	0	503	468	0	528	39	21	
4	0	0	0	0	511	473	0	531	39	22	
5	0	0	0	0	506	471	0	526	39	24	
6	0	0	0	0	505	468	0	519	39	26	
7	0	0	0	0	508	468	0	512	39	28	
8	0	0	0	0	506	460	0	506	39	28	
9	0	0	0	0	508	455	0	501	39	27	
10	0	0	0	0	508	455	0	498	39	24	
11	0	0	0	0	510	461	0	503	39	21	
12	0	0	0	0	507	463	0	528	39	21	
13	0	0	0	0	510	466	0	538	39	23	
14	0	0	0	0	511	472	0	532	39	26	
15	0	0	0	0	510	467	0	536	39	27	
0	0	0	0	0	506	459	0	550	39	28	
1	0	0	0	0	507	455	0	545	39	27	
2	0	0	0	0	505	457	0	534	39	25	
3	0	0	0	0	506	456	0	521	39	22	
4	0	0	0	0	514	457	0	510	39	21	
5	0	0	0	0	512	458	0	502	39	23	
6	0	0	0	0	509	464	0	496	39	25	
7	0	0	0	0	507	476	0	492	39	27	
8	0	0	0	0	511	480	0	489	39	28	
9	0	0	0	0	500	477	0	499	39	28	
10	0	0	0	0	507	468	0	521	39	26	
11	0	0	0	0	515	460	0	525	39	23	
12	0	0	0	0	509	452	0	530	39	21	
13	0	0	0	0	506	451	0	511	39	22	
14	0	0	0	0	506	458	0	502	39	24	
15	0	0	0	0	508	463	0	499	39	26	
0	0	0	0	0	510	466	0	515	39	28	
1	0	0	0	0	506	470	0	519	39	28	
2	0	0	0	0	507	475	0	513	39	27	
3	0	0	0	0	511	479	0	513	39	24	
4	0	0	0	0	507	480	0	512	39	21	
5	0	0	0	0	512	468	0	507	39	21	
6	0	0	0	0	503	463	0	499	39	23	
7	0	0	0	0	512	463	0	496	39	26	
8	0	0	0	0	507	466	0	488	39	27	
9	0	0	0	0	510	472	0	493	39	28	
10	0	0	0	0	510	479	0	515	39	27	
11	0	0	0	0	504	482	0	523	39	25	
12	0	0	0	0	510	483	0	517	39	22	
13	0	0	0	0	510	486	0	506	39	21	
14	0	0	0	0	506	487	0	497	39	23	
15	0	0	0	0	503	484	0	490	39	25	
0	0	0	0	0	505	478	0	483	39	27	
1	0	0	0	0	506	481	0	476	39	28	
2	0	0	0	0	511	488	0	486	39	28	
3	0	0	0	0	509	494	0	511	39	26	
4	0	0	0	0	508	496	0	521	39	23	
5	0	0	0	0	507	486	0	539	39	21	
6	0	0	0	0	502	468	0	539	39	22	
7	0	0	0	0	508	460	0	527	39	24	
8	0	0	0	0	512	468	0	514	39	26	
9	0	0	0	0	508	476	0	501	39	28	
10	0	0	0	0	506	483	0	492	39	28	
11	0	0	0	0	503	483	0	486	39	27	
12	0	0	0	0	511	479	0	485	39	24	
13	0	0	0	0	515	476	0	483	39	21	
14	0	0	0	0	510	477	0	483	39	21	
15	0	0	0	0	503	482	0	483	39	23	
0	0	0	0	0	506	481	0	481	39	26	
1	0	0	0	0	505	477	0	494	39	27	
2	0	0	0	0	507	481	0	515	39	28	
3	0	0	0	0	508	485	0	521	39	27	
4	0	0	0	0	510	489	0	516	39	25	
5	0	0	0	0	504	489	0	517	39	22	
6	0	0	0	0	512	492	0	511	39	21	
7	0	0	0	0	511	491	0	511	39	23	
8	0	0	0	0	504	491	0	529	39	25	
9	0	0	0	0	511	492	0	532	39	27	
10	0	0	0	0	511	493	0	524	39	28	
11	0	0	0	0	511	494	0	512	39	28	
12	0	0	0	0	508	491	0	504	38	26	
13	0	0	0	0	508	491	0	494	39	23	
14	0	0	0	0	507	494	0	487	39	21	
15	0	0	0	0	506	496	0	483	39	22	
0	0	0	0	0	508	497	0	492	39	24	
1	0	0	0	0	509	497	0	509	39	26	
2	0	0	0	0	512	498	0	512	39	28	
3	0	0	0	0	509	499	0	505	39	28	
4	0	0	0	0	510	490	0	496	39	27	
5	0	0	0	0	505	490	0	487	39	24	
6	0	0	0	0	509	498	0	481	39	21	
7	0	0	0	0	511	496	0	479	39	21	
8	0	0	0	0	507	494	0	476	39	23	
9	0	0	0	0	512	489	0	500	39	26	
10	0	0	0	0	503	485	0	512	39	27	
11	0	0	0	0	511	486	0	512	39	28	
12	0	0	0	0	504	487	0	505	39	27	
13	0	0	0	0	509	487	0	496	39	25	
14	0	0	0	0	508	493	0	489	39	22	
15	0	0	0	0	502	498	0	494	39	21	
0	0	0	0	0	510	499	0	509	39	22	
1	0	0	0	0	509	496	0	508	39	25	
2	0	0	0	0	502	494	0	503	39	27	
3	0	0	0	0	509	493	0	505	39	28	
4	0	0	0	0	515	493	0	502	39	28	
5	0	0	0	0	510	495	0	496	39	26	
6	0	0	0	0	509	494	0	491	39	23	
7	0	0	0	0	504	485	0	486	39	21	
8	0	0	0	0	505	480	0	481	39	22	
9	0	0	0	0	499	480	0	477	39	24	
10	0	0	0	0	509	484	0	481	39	26	
11	0	0	0	0	510	486	0	504	39	28	
12	0	0	0	0	504	489	0	514	39	28	
13	0	0	0	0	512	497	0	509	39	27	
14	0	0	0	0	508	505	0	501	39	24	
15	0	0	0	0	512	511	0	494	39	21	
0	0	0	0	0	511	518	0	487	39	21	
1	0	0	0	0	507	520	0	502	39	23	
2	0	0	0	0	515	506	0	513	39	26	
3	0	0	0	0	514	497	0	510	39	27	
4	0	0	0	0	504	501	0	503	39	28	
5	0	0	0	0	509	505	0	496	39	27	
6	0	0	0	0	507	503	0	487	39	25	
7	0	0	0	0	507	496	0	479	39	22	
8	0	0	0	0	502	498	0	484	39	21	
9	0	0	0	0	503	497	0	499	39	22	
10	0	0	0	0	508	489	0	501	39	25	
11	0	0	0	0	500	491	0	495	39	27	
12	0	0	0	0	508	492	0	486	39	28	
13	0	0	0	0	514	486	0	479	39	28	
14	0	0	0	0	506	480	0	475	39	26	
15	0	0	0	0	509	479	0	472	39	23	
0	0	0	0	0	511	487	0	465	39	21	
1	0	0	0	0	510	497	0	462	39	22	
2	0	0	0	0	513	502	0	461	39	24	
3	0	0	0	0	511	502	0	465	39	26	
4	0	0	0	0	508	503	0	465	39	28	
5	0	0	0	0	506	504	0	465	39	28	
6	0	0	0	0	504	505	0	465	39	27	
7	0	0	0	0	502	503	0	465	39	24	
8	0	0	0	0	504	504	0	461	39	21	
9	0	0	0	0	514	506	0	457	39	21	
10	0	0	0	0	504	511	0	456	39	23	
11	0	0	0	0	502	515	0	471	39	25	
12	0	0	0	0	511	511	0	463	39	27	
13	0	0	0	0	508	504	0	464	39	28	
14	0	0	0	0	509	496	0	467	39	27	
15	0	0	0	0	510	487	0	468	39	25	
0	0	0	0	0	512	480	0	467	39	22	
1	0	0	0	0	511	483	0	479	39	21	
2	0	0	0	0	512	490	0	504	39	22	
3	0	0	0	0	511	493	0	514	39	25	
4	0	0	0	0	505	495	0	510	39	27	
5	0	0	0	0	506	501	0	501	39	28	
6	0	0	0	0	508	506	0	491	39	28	
7	0	0	0	0	512	507	0	492	39	26	
8	0	0	0	0	505	510	0	512	39	23	
9	0	0	0	0	508	516	0	520	39	21	
10	0	0	0	0	509	519	0	536	39	22	
11	0	0	0	0	501	523	0	551	39	24	
12	0	0	0	0	505	520	0	545	39	26	
13	0	0	0	0	511	518	0	531	39	28	
14	0	0	0	0	509	514	0	516	39	28	
15	0	0	0	0	510	513	0	520	39	27	
0	0	0	0	0	511	513	0	527	39	24	
1	0	0	0	0	505	518	0	526	39	21	
2	0	0	0	0	505	519	0	540	39	21	
3	0	0	0	0	508	516	0	540	39	23	
4	0	0	0	0	512	514	0	528	39	25	
5	0	0	0	0	510	509	0	524	39	27	
6	0	0	0	0	500	512	0	520	39	28	
7	0	0	0	0	511	518	0	515	39	27	
8	0	0	0	0	501	519	0	530	39	25	
9	0	0	0	0	511	516	0	542	39	22	
10	0	0	0	0	509	515	0	535	39	21	
11	0	0	0	0	508	512	0	524	39	22	
12	0	0	0	0	506	505	0	515	39	25	
13	0	0	0	0	515	504	0	506	39	27	
14	0	0	0	0	505	499	0	502	39	28	
15	0	0	0	0	513	498	0	497	39	28	
0	0	0	0	0	511	506	0	500	39	26	
1	0	0	0	0	508	515	0	520	39	23	
2	0	0	0	0	505	512	0	528	39	21	
3	0	0	0	0	510	494	0	542	39	22	
4	0	0	0	0	504	468	0	554	39	24	
5	0	0	0	0	511	465	0	554	39	26	
6	0	0	0	0	509	480	0	564	39	28	
7	0	0	0	0	511	497	0	555	39	28	
8	0	0	0	0	503	508	0	537	39	27	
9	0	0	0	0	506	508	0	521	39	24	
10	0	0	0	0	507	508	0	509	39	21	
11	0	0	0	0	504	506	0	500	39	21	
12	0	0	0	0	511	506	0	495	39	23	
13	0	0	0	0	514	508	0	493	39	25	
14	0	0	0	0	505	505	0	491	39	27	
15	0	0	0	0	507	504	0	491	39	28	
0	0	0	0	0	511	505	0	491	39	27	
1	0	0	0	0	510	507	0	511	39	25	
2	0	0	0	0	513	505	0	525	39	22	
3	0	0	0	0	504	506	0	523	39	21	
4	0	0	0	0	505	508	0	521	39	22	
5	0	0	0	0	505	508	0	520	39	25	
6	0	0	0	0	512	506	0	513	39	27	
7	0	0	0	0	507	500	0	521	39	28	
8	0	0	0	0	507	499	0	532	39	28	
9	0	0	0	0	509	498	0	528	39	26	
10	0	0	0	0	504	504	0	522	39	23	
11	0	0	0	0	504	508	0	508	39	21	
12	0	0	0	0	507	503	0	499	39	22	
13	0	0	0	0	509	503	0	491	39	24	
14	0	0	0	0	508	496	0	488	39	26	
15	0	0	0	0	512	484	0	487	39	28	
0	0	0	0	0	508	487	0	487	39	28	
1	0	0	0	0	505	497	0	504	39	27	
2	0	0	0	0	509	504	0	527	39	24	
3	0	0	0	0	513	514	0	531	39	21	
4	0	0	0	0	507	518	0	526	39	21	
5	0	0	0	0	505	518	0	516	39	23	
6	0	0	0	0	508	519	0	505	39	25	
7	0	0	0	0	510	518	0	508	39	27	
8	0	0	0	0	507	515	0	520	39	28	
9	0	0	0	0	509	509	0	516	39	27	
10	0	0	0	0	511	509	0	510	39	25	
11	0	0	0	0	512	514	0	502	39	22	
12	0	0	0	0	512	515	0	494	39	21	
13	0	0	0	0	508	515	0	492	39	22	
14	0	0	0	0	509	515	0	492	39	25	
15	0	0	0	0	510	513	0	490	39	27	
0	0	0	0	0	502	514	0	489	39	28	
1	0	0	0	0	506	516	0	500	39	28	
2	0	0	0	0	507	518	0	524	39	26	
3	0	0	0	0	510	519	0	529	39	23	
4	0	0	0	0	512	518	0	523	39	21	
5	0	0	0	0	508	521	0	523	39	22	
6	0	0	0	0	512	522	0	517	39	24	
7	0	0	0	0	507	517	0	515	39	26	
8	0	0	0	0	502	516	0	531	39	28	
9	0	0	0	0	504	517	0	535	39	28	
10	0	0	0	0	508	521	0	526	39	27	
11	0	0	0	0	503	524	0	513	39	24	
12	0	0	0	0	516	520	0	504	39	21	
13	0	0	0	0	508	516	0	495	39	21	
14	0	0	0	0	511	519	0	489	39	23	
15	0	0	0	0	508	521	0	484	39	25	
0	0	0	0	0	507	523	0	493	39	27	
1	0	0	0	0	509	519	0	510	39	28	
2	0	0	0	0	508	511	0	512	39	27	
3	0	0	0	0	499	512	0	509	39	25	
4	0	0	0	0	510	519	0	502	39	22	
5	0	0	0	0	507	520	0	495	39	21	
6	0	0	0	0	505	519	0	488	39	22	
7	0	0	0	0	504	515	0	484	39	25	
8	0	0	0	0	512	504	0	481	39	27	
9	0	0	0	0	507	506	0	495	39	28	
10	0	0	0	0	510	499	0	513	39	28	
11	0	0	0	0	510	497	0	514	39	26	
12	0	0	0	0	513	504	0	506	39	23	
13	0	0	0	0	506	508	0	498	39	21	
14	0	0	0	0	516	509	0	491	39	22	
15	0	0	0	0	505	513	0	496	39	24	
0	0	0	0	0	511	515	0	511	39	26	
1	0	0	0	0	504	516	0	508	39	28	
2	0	0	0	0	505	515	0	498	39	28	
3	0	0	0	0	513	513	0	489	39	27	
4	0	0	0	0	510	509	0	482	39	24	
5	0	0	0	0	503	511	0	484	39	21	
6	0	0	0	0	510	512	0	489	39	21	
7	0	0	0	0	508	514	0	487	39	23	
8	0	0	0	0	498	516	0	502	39	25	
9	0	0	0	0	511	514	0	520	39	27	
10	0	0	0	0	511	508	0	521	39	28	
11	0	0	0	0	509	505	0	512	39	27	
12	0	0	0	0	507	508	0	510	39	25	
13	0	0	0	0	510	515	0	493	39	22	
14	0	0	0	0	509	520	0	485	39	21	
15	0	0	0	0	508	518	0	480	39	22	
0	0	0	0	0	512	507	0	481	39	25	
1	0	0	0	0	510	499	0	500	39	27	
2	0	0	0	0	506	503	0	512	39	28	
3	0	0	0	0	511	507	0	510	39	28	
4	0	0	0	0	500	510	0	504	39	26	
5	0	0	0	0	505	507	0	495	39	23	
6	0	0	0	0	507	502	0	489	39	21	
7	0	0	0	0	511	503	0	483	39	22	
8	0	0	0	0	504	516	0	489	39	24	
9	0	0	0	0	505	520	0	505	39	26	
10	0	0	0	0	499	519	0	506	39	28	
11	0	0	0	0	510	520	0	499	39	28	
12	0	0	0	0	514	518	0	492	39	27	
13	0	0	0	0	510	508	0	484	39	24	
14	0	0	0	0	512	502	0	480	39	21	
15	0	0	0	0	509	504	0	476	39	21	
0	0	0	0	0	505	512	0	473	39	23	
1	0	0	0	0	508	512	0	488	39	25	
2	0	0	0	0	510	505	0	510	39	27	
3	0	0	0	0	509	506	0	512	39	28	
4	0	0	0	0	504	507	0	505	39	27	
5	0	0	0	0	512	511	0	497	39	25	
6	0	0	0	0	508	515	0	499	39	22	
7	0	0	0	0	508	518	0	510	39	21	
8	0	0	0	0	511	516	0	529	39	22	
9	0	0	0	0	506	511	0	527	39	25	
10	0	0	0	0	510	508	0	517	39	27	
11	0	0	0	0	503	502	0	505	39	28	
12	0	0	0	0	508	500	0	496	39	28	
13	0	0	0	0	504	504	0	490	39	26	
14	0	0	0	0	505	507	0	485	39	23	
15	0	0	0	0	511	505	0	483	39	21	
0	0	0	0	0	509	510	0	480	39	22	
1	0	0	0	0	509	516	0	491	39	24	
2	0	0	0	0	512	517	0	519	39	26	
3	0	0	0	0	508	519	0	521	39	28	
4	0	0	0	0	508	518	0	514	39	28	
5	0	0	0	0	513	517	0	505	39	27	
6	0	0	0	0	514	515	0	496	39	24	
7	0	0	0	0	507	513	0	496	39	21	
8	0	0	0	0	506	508	0	513	39	21	
9	0	0	0	0	510	499	0	518	39	23	
10	0	0	0	0	508	494	0	513	39	25	
11	0	0	0	0	509	496	0	505	39	27	
12	0	0	0	0	505	501	0	498	39	28	
13	0	0	0	0	508	504	0	491	39	27	
14	0	0	0	0	499	504	0	487	39	25	
15	0	0	0	0	510	504	0	483	39	22	
0	0	0	0	0	514	514	0	492	39	21	
1	0	0	0	0	518	525	0	510	39	22	
2	0	0	0	0	510	527	0	513	39	25	
3	0	0	0	0	506	525	0	510	39	27	
4	0	0	0	0	504	523	0	515	39	28	
5	0	0	0	0	506	520	0	512	39	28	
6	0	0	0	0	507	521	0	506	39	26	
7	0	0	0	0	510	522	0	506	39	23	
8	0	0	0	0	509	519	0	495	39	21	
9	0	0	0	0	511	519	0	489	39	22	
10	0	0	0	0	505	521	0	497	39	24	
11	0	0	0	0	508	526	0	519	39	26	
12	0	0	0	0	512	531	0	521	39	28	
13	0	0	0	0	506	530	0	516	39	28	
14	0	0	0	0	510	517	0	525	39	27	
15	0	0	0	0	505	501	0	536	39	24	
0	0	0	0	0	505	500	0	529	39	21	
1	0	0	0	0	512	512	0	518	39	21	
2	0	0	0	0	505	516	0	504	39	23	
3	0	0	0	0	509	517	0	494	39	25	
4	0	0	0	0	508	519	0	486	39	27	
5	0	0	0	0	503	518	0	481	39	28	
6	0	0	0	0	506	504	0	477	39	27	
7	0	0	0	0	507	491	0	486	39	25	
8	0	0	0	0	504	489	0	476	39	22	
9	0	0	0	0	510	496	0	485	39	21	
10	0	0	0	0	513	504	0	508	39	22	
11	0	0	0	0	509	508	0	514	39	25	
12	0	0	0	0	505	510	0	510	39	27	
13	0	0	0	0	507	514	0	502	39	28	
14	0	0	0	0	509	518	0	496	39	28	
15	0	0	0	0	514	519	0	498	39	26	
0	0	0	0	0	509	521	0	516	39	23	
1	0	0	0	0	501	520	0	523	39	21	
2	0	0	0	0	503	511	0	517	39	22	
3	0	0	0	0	503	511	0	518	39	24	
4	0	0	0	0	504	514	0	517	39	26	
5	0	0	0	0	504	514	0	511	39	28	
6	0	0	0	0	516	514	0	506	39	28	
7	0	0	0	0	509	514	0	499	39	27	
8	0	0	0	0	510	515	0	495	39	24	
9	0	0	0	0	508	513	0	498	39	21	
10	0	0	0	0	510	516	0	521	39	21	
11	0	0	0	0	508	516	0	528	39	23	
12	0	0	0	0	502	509	0	521	39	25	
13	0	0	0	0	509	502	0	510	39	27	
14	0	0	0	0	511	492	0	501	39	28	
15	0	0	0	0	508	488	0	495	39	27	
0	0	0	0	0	518	494	0	491	39	25	
1	0	0	0	0	509	503	0	505	39	22	
2	0	0	0	0	509	512	0	526	39	21	
3	0	0	0	0	505	518	0	527	39	22	
4	0	0	0	0	511	515	0	520	39	25	
5	0	0	0	0	513	513	0	510	39	27	
6	0	0	0	0	512	515	0	499	39	28	
7	0	0	0	0	513	522	0	519	39	28	
8	0	0	0	0	505	528	0	521	39	26	
9	0	0	0	0	508	526	0	517	39	23	
10	0	0	0	0	501	519	0	505	39	21	
11	0	0	0	0	506	504	0	497	39	22	
12	0	0	0	0	513	498	0	491	39	24	
13	0	0	0	0	510	501	0	486	39	26	
14	0	0	0	0	502	502	0	483	39	28	
15	0	0	0	0	511	502	0	481	39	28	
0	0	0	0	0	504	505	0	479	39	27	
1	0	0	0	0	508	508	0	491	39	24	
2	0	0	0	0	502	512	0	514	39	21	
3	0	0	0	0	504	515	0	519	39	21	
4	0	0	0	0	510	512	0	515	39	23	
5	0	0	0	0	504	509	0	518	39	25	
6	0	0	0	0	512	511	0	513	39	27	
7	0	0	0	0	512	512	0	512	39	28	
8	0	0	0	0	511	512	0	532	39	27	
9	0	0	0	0	510	514	0	539	39	25	
10	0	0	0	0	514	513	0	533	39	22	
11	0	0	0	0	504	510	0	521	39	21	
12	0	0	0	0	504	512	0	511	39	22	
13	0	0	0	0	509	514	0	502	39	25	
14	0	0	0	0	502	514	0	496	39	27	
15	0	0	0	0	501	518	0	491	39	28	
0	0	0	0	0	506	521	0	488	39	28	
1	0	0	0	0	511	518	0	492	39	26	
2	0	0	0	0	512	516	0	516	39	23	
3	0	0	0	0	512	515	0	527	39	21	
4	0	0	0	0	511	513	0	524	39	22	
5	0	0	0	0	507	514	0	530	39	24	
6	0	0	0	0	506	516	0	513	39	26	
7	0	0	0	0	508	518	0	509	39	28	
8	0	0	0	0	504	519	0	526	39	28	
9	0	0	0	0	504	516	0	538	39	27	
10	0	0	0	0	508	508	0	534	39	24	
11	0	0	0	0	513	502	0	529	39	21	
12	0	0	0	0	509	502	0	523	39	21	
13	0	0	0	0	511	509	0	516	39	23	
14	0	0	0	0	507	515	0	510	39	25	
15	0	0	0	0	504	519	0	507	39	27	
0	0	0	0	0	511	521	0	508	39	28	
1	0	0	0	0	512	507	0	527	39	27	
2	0	0	0	0	507	499	0	533	39	25	
3	0	0	0	0	511	500	0	529	39	22	
4	0	0	0	0	513	502	0	532	39	21	
5	0	0	0	0	516	508	0	532	39	22	
6	0	0	0	0	505	514	0	527	39	25	
7	0	0	0	0	501	518	0	519	39	27	
8	0	0	0	0	504	520	0	513	39	28	
9	0	0	0	0	504	514	0	520	39	28	
10	0	0	0	0	508	513	0	540	39	26	
11	0	0	0	0	511	516	0	542	39	23	
12	0	0	0	0	512	517	0	537	39	21	
13	0	0	0	0	504	518	0	526	39	22	
14	0	0	0	0	505	520	0	516	39	24	
15	0	0	0	0	509	518	0	508	39	26	
0	0	0	0	0	508	513	0	505	39	28	
1	0	0	0	0	508	513	0	503	39	28	
2	0	0	0	0	503	515	0	519	39	27	
3	0	0	0	0	511	519	0	541	39	24	
4	0	0	0	0	510	522	0	543	39	21	
5	0	0	0	0	506	526	0	538	39	21	
6	0	0	0	0	507	523	0	550	39	23	
7	0	0	0	0	514	519	0	551	39	25	
8	0	0	0	0	509	522	0	541	39	27	
9	0	0	0	0	505	520	0	529	39	28	
10	0	0	0	0	508	517	0	519	39	27	
11	0	0	0	0	511	515	0	512	39	25	
12	0	0	0	0	507	513	0	504	39	22	
13	0	0	0	0	509	514	0	507	39	21	
14	0	0	0	0	506	515	0	516	39	22	
15	0	0	0	0	508	518	0	501	39	25	
0	0	0	0	0	510	521	0	502	39	27	
1	0	0	0	0	511	522	0	519	39	28	
2	0	0	0	0	508	525	0	541	39	28	
3	0	0	0	0	504	524	0	544	39	26	
4	0	0	0	0	507	517	0	540	39	23	
5	0	0	0	0	506	510	0	539	39	21	
6	0	0	0	0	509	512	0	531	39	22	
7	0	0	0	0	512	516	0	533	39	24	
8	0	0	0	0	511	525	0	547	39	26	
9	0	0	0	0	518	528	0	543	39	28	
10	0	0	0	0	510	528	0	532	39	28	
11	0	0	0	0	510	524	0	519	39	27	
12	0	0	0	0	503	525	0	509	39	24	
13	0	0	0	0	504	515	0	502	39	21	
14	0	0	0	0	505	504	0	496	39	21	
15	0	0	0	0	509	504	0	493	39	23	
0	0	0	0	0	512	508	0	488	39	25	
1	0	0	0	0	510	515	0	498	39	27	
2	0	0	0	0	507	519	0	526	39	28	
3	0	0	0	0	504	521	0	529	39	27	
4	0	0	0	0	514	527	0	519	39	25	
5	0	0	0	0	508	529	0	510	39	22	
6	0	0	0	0	507	527	0	499	39	21	
7	0	0	0	0	509	523	0	502	39	22	
8	0	0	0	0	505	512	0	520	39	25	
9	0	0	0	0	506	507	0	527	39	27	
10	0	0	0	0	510	510	0	523	39	28	
11	0	0	0	0	511	515	0	516	39	28	
12	0	0	0	0	506	517	0	510	39	26	
13	0	0	0	0	508	520	0	506	39	23	
14	0	0	0	0	507	519	0	502	39	21	
15	0	0	0	0	505	516	0	499	39	22	
0	0	0	0	0	511	518	0	512	39	24	
1	0	0	0	0	511	523	0	528	39	26	
2	0	0	0	0	508	523	0	533	39	28	
3	0	0	0	0	510	520	0	527	39	28	
4	0	0	0	0	508	521	0	529	39	27	
5	0	0	0	0	508	522	0	526	39	24	
6	0	0	0	0	513	526	0	520	39	21	
7	0	0	0	0	510	527	0	513	39	21	
8	0	0	0	0	501	528	0	506	39	23	
9	0	0	0	0	511	519	0	500	39	25	
10	0	0	0	0	509	519	0	510	39	27	
11	0	0	0	0	506	518	0	532	39	28	
12	0	0	0	0	511	515	0	537	39	27	
13	0	0	0	0	510	514	0	530	39	25	
14	0	0	0	0	511	511	0	519	39	22	
15	0	0	0	0	510	506	0	509	39	21	
0	0	0	0	0	508	505	0	500	39	22	
1	0	0	0	0	505	508	0	497	39	25	
2	0	0	0	0	512	513	0	487	39	27	
3	0	0	0	0	504	512	0	484	39	28	
4	0	0	0	0	505	510	0	484	39	28	
5	0	0	0	0	508	509	0	487	39	26	
6	0	0	0	0	513	517	0	488	39	23	
7	0	0	0	0	507	519	0	486	39	21	
8	0	0	0	0	505	516	0	480	39	22	
9	0	0	0	0	508	516	0	479	39	24	
10	0	0	0	0	508	516	0	488	39	26	
11	0	0	0	0	508	514	0	518	39	28	
12	0	0	0	0	511	510	0	532	39	28	
13	0	0	0	0	507	502	0	549	39	27	
14	0	0	0	0	512	495	0	564	39	24	
15	0	0	0	0	510	499	0	565	39	21	
0	0	0	0	0	510	507	0	575	39	21	
1	0	0	0	0	509	512	0	566	39	23	
2	0	0	0	0	512	514	0	549	39	25	
3	0	0	0	0	507	512	0	542	39	27	
4	0	0	0	0	506	511	0	536	39	28	
5	0	0	0	0	502	511	0	527	39	27	
6	0	0	0	0	508	513	0	518	39	25	
7	0	0	0	0	506	515	0	512	39	22	
8	0	0	0	0	502	513	0	507	39	21	
9	0	0	0	0	509	519	0	511	39	22	
10	0	0	0	0	509	520	0	534	39	25	
11	0	0	0	0	508	514	0	542	39	27	
12	0	0	0	0	506	509	0	537	39	28	
13	0	0	0	0	506	515	0	529	39	28	
14	0	0	0	0	511	521	0	522	39	26	
15	0	0	0	0	507	518	0	515	39	23	
0	0	0	0	0	507	511	0	511	39	21	
1	0	0	0	0	503	512	0	525	39	22	
2	0	0	0	0	507	514	0	543	39	24	
3	0	0	0	0	508	510	0	547	39	26	
4	0	0	0	0	508	507	0	537	39	28	
5	0	0	0	0	504	505	0	528	39	28	
6	0	0	0	0	508	497	0	519	39	27	
7	0	0	0	0	511	493	0	523	39	24	
8	0	0	0	0	509	499	0	535	39	21	
9	0	0	0	0	509	506	0	531	39	21	
10	0	0	0	0	503	507	0	523	39	23	
11	0	0	0	0	515	506	0	515	39	25	
12	0	0	0	0	507	500	0	509	39	27	
13	0	0	0	0	509	494	0	504	39	28	
14	0	0	0	0	502	499	0	500	39	27	
15	0	0	0	0	510	501	0	497	39	25	
0	0	0	0	0	513	497	0	492	39	22	
1	0	0	0	0	511	490	0	489	39	21	
2	0	0	0	0	507	482	0	488	39	22	
3	0	0	0	0	504	480	0	490	39	25	
4	0	0	0	0	517	486	0	515	39	27	
5	0	0	0	0	516	491	0	532	39	28	
6	0	0	0	0	505	482	0	546	39	28	
7	0	0	0	0	515	476	0	563	39	26	
8	0	0	0	0	505	483	0	560	39	23	
9	0	0	0	0	506	491	0	558	39	21	
10	0	0	0	0	507	488	0	546	39	22	
11	0	0	0	0	508	481	0	533	39	24	
12	0	0	0	0	510	481	0	522	39	26	
13	0	0	0	0	510	489	0	513	39	28	
14	0	0	0	0	512	497	0	508	39	28	
15	0	0	0	0	503	501	0	506	39	27	
0	0	0	0	0	505	503	0	502	39	24	
1	0	0	0	0	507	510	0	502	39	21	
2	0	0	0	0	508	518	0	501	39	21	
3	0	0	0	0	502	527	0	501	39	23	
4	0	0	0	0	502	526	0	516	39	25	
5	0	0	0	0	513	530	0	536	39	27	
6	0	0	0	0	511	546	0	536	39	28	
7	0	0	0	0	508	563	0	529	39	27	
8	0	0	0	0	508	583	0	514	39	25	
9	0	0	0	0	508	601	0	521	39	22	
10	0	0	0	0	508	615	0	537	39	21	
11	0	0	0	0	511	625	0	538	39	22	
12	0	0	0	0	507	624	0	537	39	25	
13	0	0	0	0	511	624	0	525	39	27	
14	0	0	0	0	504	634	0	515	39	28	
15	0	0	0	0	510	647	0	507	39	28	
0	0	0	0	0	511	660	0	508	39	26	
1	0	0	0	0	504	674	0	527	39	23	
2	0	0	0	0	511	685	0	532	39	21	
3	0	0	0	0	506	696	0	529	39	22	
4	0	0	0	0	508	708	0	531	39	24	
5	0	0	0	0	507	720	0	532	39	26	
6	0	0	0	0	505	728	0	527	39	28	
7	0	0	0	0	512	734	0	520	39	28	
8	0	0	0	0	508	733	0	512	39	27	
9	0	0	0	0	507	731	0	519	39	24	
10	0	0	0	0	508	727	0	537	39	21	
11	0	0	0	0	512	729	0	540	39	21	
12	0	0	0	0	504	733	0	532	39	23	
13	0	0	0	0	502	727	0	520	39	25	
14	0	0	0	0	511	711	0	510	39	27	
15	0	0	0	0	505	693	0	504	39	28	
0	0	0	0	0	508	678	0	502	39	27	
1	0	0	0	0	510	665	0	518	39	25	
2	0	0	0	0	508	655	0	531	39	22	
3	0	0	0	0	513	636	0	529	39	21	
4	0	0	0	0	515	613	0	521	39	22	
5	0	0	0	0	507	591	0	513	39	25	
6	0	0	0	0	511	567	0	505	39	27	
7	0	0	0	0	513	549	0	499	39	28	
8	0	0	0	0	511	533	0	506	39	28	
9	0	0	0	0	505	514	0	524	39	26	
10	0	0	0	0	508	499	0	527	39	23	
11	0	0	0	0	504	481	0	523	39	21	
12	0	0	0	0	506	456	0	513	39	22	
13	0	0	0	0	508	444	0	508	39	24	
14	0	0	0	0	504	441	0	502	39	26	
15	0	0	0	0	510	435	0	500	39	28	
0	0	0	0	0	512	435	0	497	39	28	
1	0	0	0	0	508	433	0	514	39	27	
2	0	0	0	0	508	430	0	534	39	24	
3	0	0	0	0	509	421	0	537	39	21	
4	0	0	0	0	503	416	0	535	39	21	
5	0	0	0	0	512	421	0	537	39	23	
6	0	0	0	0	510	426	0	531	39	25	
7	0	0	0	0	504	428	0	536	39	27	
8	0	0	0	0	504	423	0	564	39	28	
9	0	0	0	0	511	421	0	558	39	27	
10	0	0	0	0	510	423	0	543	39	25	
11	0	0	0	0	507	429	0	530	39	22	
12	0	0	0	0	502	435	0	516	39	21	
13	0	0	0	0	512	436	0	506	39	22	
14	0	0	0	0	507	429	0	500	39	25	
15	0	0	0	0	502	429	0	497	39	27	
0	0	0	0	0	511	424	0	492	39	28	
1	0	0	0	0	509	421	0	488	39	28	
2	0	0	0	0	509	426	0	487	39	26	
3	0	0	0	0	513	432	0	493	39	23	
4	0	0	0	0	510	437	0	520	39	21	
5	0	0	0	0	508	446	0	540	39	22	
6	0	0	0	0	507	448	0	555	39	24	
7	0	0	0	0	508	444	0	568	39	26	
8	0	0	0	0	504	441	0	561	39	28	
9	0	0	0	0	515	438	0	547	39	28	
10	0	0	0	0	504	430	0	532	39	27	
11	0	0	0	0	506	431	0	526	39	24	
12	0	0	0	0	510	438	0	515	39	21	
13	0	0	0	0	515	447	0	508	39	21	
14	0	0	0	0	512	452	0	505	39	23	
15	0	0	0	0	510	454	0	503	39	25	
0	0	0	0	0	506	454	0	513	39	27	
1	0	0	0	0	502	454	0	533	39	28	
2	0	0	0	0	508	455	0	537	39	27	
3	0	0	0	0	509	454	0	535	39	25	
4	0	0	0	0	511	454	0	539	39	22	
5	0	0	0	0	503	461	0	536	39	21	
6	0	0	0	0	508	465	0	531	39	22	
7	0	0	0	0	502	465	0	525	39	25	
8	0	0	0	0	510	471	0	520	39	27	
9	0	0	0	0	512	479	0	517	39	28	
10	0	0	0	0	509	478	0	526	39	28	
11	0	0	0	0	505	467	0	547	39	26	
12	0	0	0	0	504	462	0	553	39	23	
13	0	0	0	0	511	458	0	548	39	21	
14	0	0	0	0	511	460	0	537	39	22	
15	0	0	0	0	505	460	0	527	39	24	
0	0	0	0	0	504	454	0	526	39	26	
1	0	0	0	0	510	455	0	544	39	28	
2	0	0	0	0	508	462	0	550	39	28	
3	0	0	0	0	508	470	0	544	39	27	
4	0	0	0	0	509	476	0	536	39	24	
5	0	0	0	0	507	480	0	527	39	21	
6	0	0	0	0	508	474	0	523	39	21	
7	0	0	0	0	511	470	0	517	39	23	
8	0	0	0	0	512	475	0	529	39	25	
9	0	0	0	0	507	478	0	543	39	27	
10	0	0	0	0	511	479	0	543	39	28	
11	0	0	0	0	513	483	0	539	39	27	
12	0	0	0	0	502	486	0	533	39	25	
13	0	0	0	0	506	492	0	526	39	22	
14	0	0	0	0	510	495	0	520	39	21	
15	0	0	0	0	509	494	0	516	39	22	
0	0	0	0	0	504	496	0	512	39	25	
1	0	0	0	0	508	495	0	514	39	27	
2	0	0	0	0	509	492	0	524	39	28	
3	0	0	0	0	504	488	0	546	39	28	
4	0	0	0	0	503	489	0	549	39	26	
5	0	0	0	0	505	492	0	546	39	23	
6	0	0	0	0	509	492	0	559	39	21	
7	0	0	0	0	514	494	0	563	39	22	
8	0	0	0	0	508	493	0	554	39	24	
9	0	0	0	0	504	485	0	540	39	26	
10	0	0	0	0	506	482	0	529	39	28	
11	0	0	0	0	506	489	0	519	39	28	
12	0	0	0	0	511	497	0	511	38	27	
13	0	0	0	0	510	495	0	507	39	24	
14	0	0	0	0	512	492	0	505	39	21	
15	0	0	0	0	507	485	0	504	39	21	
0	0	0	0	0	508	481	0	503	39	23	
1	0	0	0	0	503	486	0	521	39	25	
2	0	0	0	0	512	494	0	543	39	27	
3	0	0	0	0	511	501	0	553	39	28	
4	0	0	0	0	504	510	0	574	39	27	
5	0	0	0	0	507	510	0	575	39	25	
6	0	0	0	0	505	502	0	579	39	22	
7	0	0	0	0	512	496	0	578	39	21	
8	0	0	0	0	512	489	0	561	39	22	
9	0	0	0	0	504	473	0	544	39	25	
10	0	0	0	0	511	471	0	529	39	27	
11	0	0	0	0	507	482	0	518	39	28	
12	0	0	0	0	506	495	0	510	39	28	
13	0	0	0	0	511	503	0	508	39	26	
14	0	0	0	0	513	506	0	511	39	23	
15	0	0	0	0	503	507	0	506	39	21	
0	0	0	0	0	505	508	0	503	39	22	
1	0	0	0	0	508	500	0	514	39	24	
2	0	0	0	0	504	496	0	539	39	26	
3	0	0	0	0	508	495	0	545	39	27	
4	0	0	0	0	512	490	0	540	39	28	
5	0	0	0	0	510	490	0	540	39	27	
6	0	0	0	0	508	493	0	534	39	24	
7	0	0	0	0	508	495	0	531	39	21	
8	0	0	0	0	504	492	0	547	39	21	
9	0	0	0	0	513	489	0	551	39	23	
10	0	0	0	0	508	492	0	541	39	25	
11	0	0	0	0	504	495	0	528	39	27	
12	0	0	0	0	500	497	0	519	39	28	
13	0	0	0	0	505	496	0	509	39	27	
14	0	0	0	0	512	492	0	501	39	25	
15	0	0	0	0	508	495	0	497	39	22	
0	0	0	0	0	502	500	0	494	39	21	
1	0	0	0	0	510	505	0	490	39	22	
2	0	0	0	0	511	511	0	488	39	25	
3	0	0	0	0	512	510	0	487	39	27	
4	0	0	0	0	504	508	0	485	39	28	
5	0	0	0	0	504	502	0	484	39	28	
6	0	0	0	0	508	497	0	485	39	26	
7	0	0	0	0	512	491	0	486	39	23	
8	0	0	0	0	505	485	0	483	39	21	
9	0	0	0	0	512	486	0	480	39	21	
10	0	0	0	0	508	493	0	477	39	24	
11	0	0	0	0	508	502	0	480	39	26	
12	0	0	0	0	512	511	0	480	39	27	
13	0	0	0	0	506	514	0	480	39	28	
14	0	0	0	0	512	517	0	479	39	27	
15	0	0	0	0	513	520	0	475	39	24	
0	0	0	0	0	507	524	0	473	39	21	
1	0	0	0	0	512	525	0	470	39	21	
2	0	0	0	0	510	527	0	469	39	23	
3	0	0	0	0	508	531	0	471	39	25	
4	0	0	0	0	513	532	0	474	39	27	
5	0	0	0	0	502	527	0	476	39	28	
6	0	0	0	0	508	518	0	479	39	27	
7	0	0	0	0	504	511	0	479	39	25	
8	0	0	0	0	505	511	0	495	39	22	
9	0	0	0	0	508	512	0	510	39	21	
10	0	0	0	0	515	510	0	527	39	22	
11	0	0	0	0	499	510	0	539	39	24	
12	0	0	0	0	511	512	0	542	39	26	
13	0	0	0	0	515	516	0	548	39	28	
14	0	0	0	0	502	520	0	555	39	28	
15	0	0	0	0	507	523	0	549	39	26	
0	0	0	0	0	504	523	0	557	39	23	
1	0	0	0	0	508	519	0	547	39	21	
2	0	0	0	0	511	518	0	550	39	21	
3	0	0	0	0	499	519	0	557	39	24	
4	0	0	0	0	506	525	0	555	39	26	
5	0	0	0	0	507	536	0	563	39	27	
6	0	0	0	0	506	544	0	556	39	28	
7	0	0	0	0	511	547	0	557	39	27	
8	0	0	0	0	511	536	0	556	39	24	
9	0	0	0	0	506	519	0	543	39	21	
10	0	0	0	0	507	517	0	522	39	21	
11	0	0	0	0	514	523	0	503	39	23	
12	0	0	0	0	506	527	0	489	39	25	
13	0	0	0	0	508	532	0	480	39	27	
14	0	0	0	0	514	535	0	477	39	28	
15	0	0	0	0	505	537	0	474	39	27	
0	0	0	0	0	509	536	0	468	39	25	
1	0	0	0	0	506	528	0	465	39	22	
2	0	0	0	0	510	526	0	465	39	21	
3	0	0	0	0	510	529	0	467	39	22	
4	0	0	0	0	503	532	0	469	39	24	
5	0	0	0	0	509	527	0	476	39	26	
6	0	0	0	0	509	526	0	474	39	28	
7	0	0	0	0	511	531	0	472	39	28	
8	0	0	0	0	510	541	0	468	39	26	
9	0	0	0	0	508	544	0	463	39	23	
10	0	0	0	0	511	543	0	462	39	21	
11	0	0	0	0	507	543	0	463	39	21	
12	0	0	0	0	508	546	0	465	39	24	
13	0	0	0	0	504	546	0	467	39	26	
14	0	0	0	0	504	546	0	470	39	27	
15	0	0	0	0	508	550	0	470	39	28	
0	0	0	0	0	511	544	0	466	39	27	
1	0	0	0	0	509	537	0	463	39	24	
2	0	0	0	0	502	532	0	470	39	21	
3	0	0	0	0	503	533	0	499	39	21	
4	0	0	0	0	509	536	0	514	39	23	
5	0	0	0	0	514	540	0	513	39	25	
6	0	0	0	0	509	547	0	507	39	27	
7	0	0	0	0	511	553	0	493	39	28	
8	0	0	0	0	497	552	0	480	39	27	
9	0	0	0	0	515	552	0	469	39	25	
10	0	0	0	0	511	551	0	467	39	22	
11	0	0	0	0	513	548	0	480	39	21	
12	0	0	0	0	507	548	0	501	39	22	
13	0	0	0	0	509	547	0	510	39	24	
14	0	0	0	0	507	550	0	527	39	26	
15	0	0	0	0	510	550	0	540	39	28	
0	0	0	0	0	504	552	0	545	39	28	
1	0	0	0	0	511	556	0	552	39	26	
2	0	0	0	0	502	555	0	546	39	23	
3	0	0	0	0	516	556	0	552	39	21	
4	0	0	0	0	514	556	0	550	39	21	
5	0	0	0	0	509	552	0	535	39	24	
6	0	0	0	0	505	550	0	526	39	26	
7	0	0	0	0	505	556	0	535	39	28	
8	0	0	0	0	508	563	0	532	39	28	
9	0	0	0	0	503	562	0	530	39	27	
10	0	0	0	0	508	553	0	520	39	24	
11	0	0	0	0	508	547	0	509	39	21	
12	0	0	0	0	509	547	0	499	39	21	
13	0	0	0	0	509	548	0	491	39	23	
14	0	0	0	0	510	551	0	484	39	25	
15	0	0	0	0	510	553	0	480	39	27	
0	0	0	0	0	518	553	0	480	39	28	
1	0	0	0	0	507	557	0	481	39	27	
2	0	0	0	0	504	560	0	481	39	25	
3	0	0	0	0	514	555	0	481	39	22	
4	0	0	0	0	510	542	0	492	39	21	
5	0	0	0	0	510	537	0	518	39	22	
6	0	0	0	0	510	538	0	525	39	25	
7	0	0	0	0	507	540	0	543	39	27	
8	0	0	0	0	503	544	0	545	39	28	
9	0	0	0	0	515	542	0	533	39	28	
10	0	0	0	0	508	533	0	520	39	26	
11	0	0	0	0	511	522	0	509	39	23	
12	0	0	0	0	505	516	0	500	39	21	
13	0	0	0	0	505	515	0	493	39	21	
14	0	0	0	0	504	516	0	489	39	24	
15	0	0	0	0	511	520	0	488	39	26	
0	0	0	0	0	511	526	0	489	39	27	
1	0	0	0	0	503	529	0	510	39	28	
2	0	0	0	0	502	530	0	527	39	27	
3	0	0	0	0	506	526	0	528	39	24	
4	0	0	0	0	510	513	0	530	39	21	
5	0	0	0	0	506	501	0	530	39	21	
6	0	0	0	0	508	494	0	526	39	23	
7	0	0	0	0	515	493	0	536	39	25	
8	0	0	0	0	515	490	0	552	39	27	
9	0	0	0	0	511	477	0	546	39	28	
10	0	0	0	0	505	473	0	536	39	27	
11	0	0	0	0	508	477	0	526	39	25	
12	0	0	0	0	510	472	0	515	39	22	
13	0	0	0	0	507	462	0	509	39	21	
14	0	0	0	0	507	460	0	504	39	22	
15	0	0	0	0	506	461	0	504	39	25	
0	0	0	0	0	508	465	0	502	39	26	
1	0	0	0	0	509	470	0	518	39	28	
2	0	0	0	0	499	470	0	539	39	28	
3	0	0	0	0	505	467	0	542	39	26	
4	0	0	0	0	514	470	0	535	39	23	
5	0	0	0	0	508	468	0	525	39	21	
6	0	0	0	0	508	469	0	515	39	22	
7	0	0	0	0	511	464	0	520	39	24	
8	0	0	0	0	513	458	0	532	39	26	
9	0	0	0	0	505	461	0	529	39	28	
10	0	0	0	0	509	464	0	523	39	28	
11	0	0	0	0	510	467	0	512	39	27	
12	0	0	0	0	508	470	0	505	39	24	
13	0	0	0	0	501	468	0	501	39	21	
14	0	0	0	0	509	459	0	499	39	21	
15	0	0	0	0	506	448	0	496	39	23	
0	0	0	0	0	508	449	0	495	39	25	
1	0	0	0	0	508	454	0	508	39	27	
2	0	0	0	0	504	459	0	534	39	28	
3	0	0	0	0	507	465	0	540	39	27	
4	0	0	0	0	510	468	0	536	39	25	
5	0	0	0	0	507	463	0	527	39	22	
6	0	0	0	0	507	454	0	529	39	21	
7	0	0	0	0	509	456	0	536	39	22	
8	0	0	0	0	511	460	0	558	39	24	
9	0	0	0	0	511	463	0	564	39	26	
10	0	0	0	0	502	462	0	556	39	28	
11	0	0	0	0	501	460	0	544	39	28	
12	0	0	0	0	510	457	0	534	39	26	
13	0	0	0	0	513	456	0	524	39	23	
14	0	0	0	0	517	456	0	516	39	21	
15	0	0	0	0	510	452	0	508	39	21	
0	0	0	0	0	499	453	0	515	39	24	
1	0	0	0	0	504	463	0	532	39	26	
2	0	0	0	0	511	471	0	536	39	27	
3	0	0	0	0	507	463	0	532	39	28	
4	0	0	0	0	506	455	0	524	39	27	
5	0	0	0	0	508	449	0	520	39	24	
6	0	0	0	0	511	446	0	531	39	21	
7	0	0	0	0	504	441	0	512	39	21	
8	0	0	0	0	509	438	0	507	39	23	
9	0	0	0	0	509	440	0	520	39	25	
10	0	0	0	0	512	447	0	536	39	27	
11	0	0	0	0	505	455	0	538	39	28	
12	0	0	0	0	509	457	0	532	39	27	
13	0	0	0	0	502	458	0	522	39	25	
14	0	0	0	0	510	460	0	514	39	22	
15	0	0	0	0	510	460	0	518	39	21	
0	0	0	0	0	507	458	0	531	39	22	
1	0	0	0	0	510	451	0	530	39	24	
2	0	0	0	0	512	448	0	524	39	26	
3	0	0	0	0	511	455	0	527	39	28	
4	0	0	0	0	508	459	0	523	39	28	
5	0	0	0	0	502	463	0	516	39	26	
6	0	0	0	0	503	470	0	513	39	23	
7	0	0	0	0	511	476	0	508	39	21	
8	0	0	0	0	507	481	0	503	39	21	
9	0	0	0	0	507	483	0	499	39	24	
10	0	0	0	0	508	480	0	505	39	26	
11	0	0	0	0	512	477	0	531	39	27	
12	0	0	0	0	511	472	0	541	39	28	
13	0	0	0	0	508	469	0	536	39	27	
14	0	0	0	0	510	464	0	527	39	24	
15	0	0	0	0	504	467	0	520	39	21	
0	0	0	0	0	500	470	0	515	39	21	
1	0	0	0	0	508	466	0	530	39	23	
2	0	0	0	0	508	462	0	542	39	25	
3	0	0	0	0	509	455	0	540	39	27	
4	0	0	0	0	506	459	0	531	39	28	
5	0	0	0	0	504	470	0	521	39	27	
6	0	0	0	0	509	472	0	513	39	25	
7	0	0	0	0	508	474	0	513	39	22	
8	0	0	0	0	508	472	0	513	39	21	
9	0	0	0	0	506	471	0	528	39	22	
10	0	0	0	0	505	474	0	530	39	24	
11	0	0	0	0	509	479	0	527	39	26	
12	0	0	0	0	509	483	0	520	39	28	
13	0	0	0	0	510	484	0	511	39	28	
14	0	0	0	0	503	482	0	506	39	26	
15	0	0	0	0	507	480	0	503	39	23	
0	0	0	0	0	511	477	0	500	39	21	
1	0	0	0	0	507	475	0	516	39	21	
2	0	0	0	0	505	468	0	535	39	24	
3	0	0	0	0	509	468	0	536	39	26	
4	0	0	0	0	510	470	0	535	39	27	
5	0	0	0	0	505	469	0	537	39	28	
6	0	0	0	0	509	467	0	529	39	27	
7	0	0	0	0	507	467	0	531	39	24	
8	0	0	0	0	504	462	0	547	39	21	
9	0	0	0	0	508	463	0	547	39	21	
10	0	0	0	0	508	473	0	538	39	23	
11	0	0	0	0	515	479	0	524	39	25	
12	0	0	0	0	511	480	0	512	39	27	
13	0	0	0	0	510	484	0	504	39	28	
14	0	0	0	0	508	483	0	499	39	27	
15	0	0	0	0	507	483	0	497	39	25	
0	0	0	0	0	508	484	0	494	39	22	
1	0	0	0	0	505	485	0	505	39	21	
2	0	0	0	0	512	480	0	528	39	22	
3	0	0	0	0	510	480	0	535	39	24	
4	0	0	0	0	504	481	0	527	39	26	
5	0	0	0	0	503	484	0	517	39	28	
6	0	0	0	0	511	491	0	508	39	28	
7	0	0	0	0	507	495	0	504	39	26	
8	0	0	0	0	507	494	0	518	39	23	
9	0	0	0	0	510	482	0	523	39	21	
10	0	0	0	0	509	480	0	515	39	21	
11	0	0	0	0	503	483	0	505	39	24	
12	0	0	0	0	513	487	0	499	39	26	
13	0	0	0	0	512	491	0	495	39	27	
14	0	0	0	0	502	489	0	492	39	28	
15	0	0	0	0	511	487	0	489	39	27	
0	0	0	0	0	511	490	0	500	39	24	
1	0	0	0	0	504	493	0	519	39	21	
2	0	0	0	0	512	494	0	521	39	21	
3	0	0	0	0	504	490	0	517	39	23	
4	0	0	0	0	510	486	0	517	39	25	
5	0	0	0	0	511	482	0	513	39	27	
6	0	0	0	0	511	479	0	507	39	28	
7	0	0	0	0	504	480	0	499	39	27	
8	0	0	0	0	503	482	0	492	39	25	
9	0	0	0	0	504	483	0	487	39	22	
10	0	0	0	0	508	489	0	495	39	21	
11	0	0	0	0	511	492	0	516	39	22	
12	0	0	0	0	511	496	0	521	39	24	
13	0	0	0	0	509	500	0	515	39	26	
14	0	0	0	0	512	502	0	504	39	28	
15	0	0	0	0	507	503	0	495	39	28	
0	0	0	0	0	508	507	0	488	39	26	
1	0	0	0	0	507	505	0	484	39	23	
2	0	0	0	0	512	496	0	504	39	21	
3	0	0	0	0	510	494	0	526	39	21	
4	0	0	0	0	500	494	0	514	39	24	
5	0	0	0	0	501	495	0	508	39	26	
6	0	0	0	0	510	495	0	498	39	27	
7	0	0	0	0	509	499	0	489	39	28	
8	0	0	0	0	514	502	0	501	39	27	
9	0	0	0	0	506	499	0	513	39	24	
10	0	0	0	0	502	492	0	510	39	21	
11	0	0	0	0	508	485	0	502	39	21	
12	0	0	0	0	512	486	0	494	39	23	
13	0	0	0	0	513	492	0	487	39	25	
14	0	0	0	0	505	492	0	484	39	27	
15	0	0	0	0	510	491	0	488	39	28	
0	0	0	0	0	513	480	0	507	39	27	
1	0	0	0	0	509	476	0	514	39	25	
2	0	0	0	0	507	478	0	510	39	22	
3	0	0	0	0	510	486	0	510	39	21	
4	0	0	0	0	507	491	0	508	39	22	
5	0	0	0	0	497	492	0	501	39	24	
6	0	0	0	0	505	495	0	493	39	26	
7	0	0	0	0	511	496	0	485	39	28	
8	0	0	0	0	505	494	0	481	39	28	
9	0	0	0	0	511	492	0	485	39	26	
10	0	0	0	0	511	492	0	508	39	23	
11	0	0	0	0	508	495	0	516	39	21	
12	0	0	0	0	510	501	0	513	39	21	
13	0	0	0	0	509	512	0	505	39	24	
14	0	0	0	0	508	515	0	499	39	26	
15	0	0	0	0	507	512	0	496	39	27	
0	0	0	0	0	511	504	0	492	39	28	
1	0	0	0	0	506	493	0	508	39	27	
2	0	0	0	0	510	490	0	529	39	24	
3	0	0	0	0	509	495	0	531	39	21	
4	0	0	0	0	505	502	0	526	39	21	
5	0	0	0	0	516	505	0	515	39	23	
6	0	0	0	0	503	502	0	505	39	25	
7	0	0	0	0	506	501	0	496	39	27	
8	0	0	0	0	513	497	0	492	39	28	
9	0	0	0	0	508	494	0	510	39	27	
10	0	0	0	0	508	496	0	518	39	25	
11	0	0	0	0	512	501	0	516	39	22	
12	0	0	0	0	507	497	0	510	39	21	
13	0	0	0	0	509	489	0	505	39	22	
14	0	0	0	0	509	495	0	499	39	24	
15	0	0	0	0	505	502	0	495	39	26	
0	0	0	0	0	505	500	0	492	39	28	
1	0	0	0	0	503	491	0	501	39	28	
2	0	0	0	0	512	490	0	524	39	26	
3	0	0	0	0	514	492	0	530	39	23	
4	0	0	0	0	504	492	0	528	39	21	
5	0	0	0	0	505	491	0	530	39	21	
6	0	0	0	0	508	492	0	525	39	24	
7	0	0	0	0	501	495	0	523	39	26	
8	0	0	0	0	511	500	0	543	39	27	
9	0	0	0	0	510	510	0	547	39	28	
10	0	0	0	0	515	517	0	538	39	27	
11	0	0	0	0	504	518	0	526	39	24	
12	0	0	0	0	510	513	0	514	39	21	
13	0	0	0	0	511	510	0	505	39	21	
14	0	0	0	0	510	514	0	498	39	23	
15	0	0	0	0	507	515	0	493	39	25	
0	0	0	0	0	506	512	0	500	39	27	
1	0	0	0	0	509	510	0	519	39	28	
2	0	0	0	0	510	508	0	523	39	27	
3	0	0	0	0	513	502	0	518	39	25	
4	0	0	0	0	508	497	0	512	39	22	
5	0	0	0	0	511	498	0	504	39	21	
6	0	0	0	0	499	497	0	498	39	22	
7	0	0	0	0	506	497	0	494	39	24	
8	0	0	0	0	508	499	0	493	39	26	
9	0	0	0	0	510	500	0	510	39	28	
10	0	0	0	0	515	501	0	529	39	28	
11	0	0	0	0	504	502	0	534	39	26	
12	0	0	0	0	511	502	0	529	39	23	
13	0	0	0	0	505	496	0	521	39	21	
14	0	0	0	0	508	487	0	512	39	21	
15	0	0	0	0	516	486	0	515	39	24	
0	0	0	0	0	508	490	0	530	39	26	
1	0	0	0	0	499	500	0	529	39	27	
2	0	0	0	0	504	510	0	524	39	28	
3	0	0	0	0	499	514	0	527	39	27	
4	0	0	0	0	507	512	0	539	39	24	
5	0	0	0	0	511	502	0	523	39	21	
6	0	0	0	0	508	499	0	515	39	21	
7	0	0	0	0	508	499	0	511	39	23	
8	0	0	0	0	513	499	0	505	39	25	
9	0	0	0	0	507	500	0	502	39	27	
10	0	0	0	0	511	498	0	507	39	28	
11	0	0	0	0	506	492	0	531	39	27	
12	0	0	0	0	506	495	0	540	39	25	
13	0	0	0	0	506	505	0	534	39	22	
14	0	0	0	0	502	510	0	524	39	21	
15	0	0	0	0	505	497	0	516	39	22	
0	0	0	0	0	508	493	0	510	39	24	
1	0	0	0	0	508	498	0	527	39	26	
2	0	0	0	0	506	506	0	539	39	28	
3	0	0	0	0	512	518	0	537	39	28	
4	0	0	0	0	507	519	0	530	39	26	
5	0	0	0	0	505	514	0	523	39	23	
6	0	0	0	0	503	510	0	515	39	21	
7	0	0	0	0	508	508	0	509	39	21	
8	0	0	0	0	510	505	0	517	39	24	
9	0	0	0	0	517	501	0	535	39	26	
10	0	0	0	0	506	504	0	544	39	27	
11	0	0	0	0	509	505	0	550	39	28	
12	0	0	0	0	508	497	0	525	38	27	
13	0	0	0	0	510	493	0	519	39	24	
14	0	0	0	0	502	495	0	514	39	22	
15	0	0	0	0	499	499	0	512	39	21	
0	0	0	0	0	510	498	0	510	39	23	
1	0	0	0	0	507	500	0	524	39	25	
2	0	0	0	0	506	499	0	544	39	27	
3	0	0	0	0	507	502	0	545	39	28	
4	0	0	0	0	507	505	0	537	39	27	
5	0	0	0	0	509	510	0	528	39	25	
6	0	0	0	0	503	521	0	528	39	22	
7	0	0	0	0	507	523	0	537	39	21	
8	0	0	0	0	515	513	0	556	39	22	
9	0	0	0	0	512	508	0	557	39	24	
10	0	0	0	0	509	507	0	548	39	26	
11	0	0	0	0	508	507	0	536	39	28	
12	0	0	0	0	508	507	0	524	39	28	
13	0	0	0	0	513	504	0	515	39	26	
14	0	0	0	0	514	503	0	510	39	23	
15	0	0	0	0	504	504	0	506	39	21	
0	0	0	0	0	508	508	0	502	39	21	
1	0	0	0	0	511	514	0	512	39	24	
2	0	0	0	0	502	516	0	535	39	26	
3	0	0	0	0	512	518	0	540	39	27	
4	0	0	0	0	507	517	0	535	39	28	
5	0	0	0	0	507	517	0	523	39	27	
6	0	0	0	0	511	520	0	515	39	24	
7	0	0	0	0	510	520	0	515	39	22	
8	0	0	0	0	503	513	0	531	39	21	
9	0	0	0	0	511	503	0	536	39	23	
10	0	0	0	0	510	497	0	529	39	25	
11	0	0	0	0	504	494	0	520	39	27	
12	0	0	0	0	504	496	0	513	39	28	
13	0	0	0	0	504	499	0	510	39	27	
14	0	0	0	0	507	500	0	504	39	25	
15	0	0	0	0	509	500	0	500	39	22	
0	0	0	0	0	511	507	0	509	39	21	
1	0	0	0	0	508	510	0	527	39	22	
2	0	0	0	0	509	510	0	531	39	24	
3	0	0	0	0	509	507	0	527	39	26	
4	0	0	0	0	506	508	0	529	39	28	
5	0	0	0	0	510	513	0	524	39	28	
6	0	0	0	0	505	514	0	517	39	26	
7	0	0	0	0	508	508	0	510	39	23	
8	0	0	0	0	520	507	0	504	39	21	
9	0	0	0	0	503	508	0	499	39	21	
10	0	0	0	0	508	512	0	507	39	24	
11	0	0	0	0	507	514	0	529	39	26	
12	0	0	0	0	510	515	0	535	39	27	
13	0	0	0	0	504	513	0	529	39	28	
14	0	0	0	0	512	505	0	519	39	27	
15	0	0	0	0	510	504	0	510	39	24	
0	0	0	0	0	507	507	0	503	39	22	
1	0	0	0	0	506	510	0	500	39	21	
2	0	0	0	0	504	514	0	520	39	23	
3	0	0	0	0	510	518	0	533	39	25	
4	0	0	0	0	503	515	0	529	39	27	
5	0	0	0	0	506	508	0	522	39	28	
6	0	0	0	0	515	507	0	512	39	27	
7	0	0	0	0	512	507	0	505	39	25	
8	0	0	0	0	510	509	0	514	39	22	
9	0	0	0	0	512	505	0	525	39	21	
10	0	0	0	0	506	494	0	524	39	22	
11	0	0	0	0	505	493	0	518	39	24	
12	0	0	0	0	510	499	0	510	39	26	
13	0	0	0	0	511	502	0	502	39	28	
14	0	0	0	0	506	501	0	495	39	28	
15	0	0	0	0	507	502	0	493	39	26	
0	0	0	0	0	503	505	0	492	39	23	
1	0	0	0	0	504	502	0	512	39	21	
2	0	0	0	0	506	495	0	527	39	21	
3	0	0	0	0	513	499	0	539	39	24	
4	0	0	0	0	514	503	0	527	39	26	
5	0	0	0	0	514	508	0	526	39	27	
6	0	0	0	0	505	512	0	520	39	28	
7	0	0	0	0	504	516	0	530	39	27	
8	0	0	0	0	509	516	0	543	39	24	
9	0	0	0	0	505	511	0	540	39	21	
10	0	0	0	0	508	505	0	530	39	21	
11	0	0	0	0	515	502	0	517	39	23	
12	0	0	0	0	509	499	0	506	39	25	
13	0	0	0	0	508	495	0	498	39	27	
14	0	0	0	0	502	500	0	494	39	28	
15	0	0	0	0	510	510	0	492	39	27	
0	0	0	0	0	506	516	0	490	39	25	
1	0	0	0	0	510	521	0	504	39	22	
2	0	0	0	0	509	525	0	523	39	21	
3	0	0	0	0	505	524	0	524	39	22	
4	0	0	0	0	507	521	0	515	39	24	
5	0	0	0	0	512	521	0	502	39	26	
6	0	0	0	0	502	516	0	493	39	28	
7	0	0	0	0	512	511	0	496	39	28	
8	0	0	0	0	511	508	0	507	39	26	
9	0	0	0	0	509	507	0	501	39	23	
10	0	0	0	0	503	510	0	494	39	21	
11	0	0	0	0	507	514	0	484	39	21	
12	0	0	0	0	507	515	0	479	39	24	
13	0	0	0	0	510	513	0	475	39	26	
14	0	0	0	0	511	498	0	473	39	27	
15	0	0	0	0	507	487	0	472	39	28	
0	0	0	0	0	512	488	0	470	39	27	
1	0	0	0	0	508	496	0	482	39	24	
2	0	0	0	0	510	501	0	506	39	22	
3	0	0	0	0	507	508	0	512	39	21	
4	0	0	0	0	501	508	0	508	39	23	
5	0	0	0	0	504	507	0	510	39	25	
6	0	0	0	0	507	504	0	505	39	27	
7	0	0	0	0	510	499	0	503	39	28	
8	0	0	0	0	510	497	0	523	39	27	
9	0	0	0	0	511	502	0	527	39	25	
10	0	0	0	0	516	504	0	519	39	22	
11	0	0	0	0	512	505	0	507	39	21	
12	0	0	0	0	512	505	0	495	39	22	
13	0	0	0	0	506	502	0	485	39	24	
14	0	0	0	0	507	505	0	484	39	26	
15	0	0	0	0	506	508	0	479	39	28	
0	0	0	0	0	512	508	0	484	39	28	
1	0	0	0	0	512	505	0	500	39	26	
2	0	0	0	0	504	502	0	502	39	23	
3	0	0	0	0	512	504	0	497	39	21	
4	0	0	0	0	511	504	0	488	39	21	
5	0	0	0	0	511	505	0	481	39	24	
6	0	0	0	0	508	505	0	476	39	26	
7	0	0	0	0	512	509	0	473	39	27	
8	0	0	0	0	509	511	0	472	39	28	
9	0	0	0	0	512	508	0	488	39	27	
10	0	0	0	0	504	504	0	508	39	24	
11	0	0	0	0	502	505	0	510	39	22	
12	0	0	0	0	505	510	0	504	39	21	
13	0	0	0	0	506	513	0	495	39	23	
14	0	0	0	0	507	514	0	487	39	25	
15	0	0	0	0	502	517	0	493	39	27	
0	0	0	0	0	510	523	0	508	39	28	
1	0	0	0	0	508	523	0	508	39	27	
2	0	0	0	0	510	513	0	502	39	25	
3	0	0	0	0	510	505	0	503	39	22	
4	0	0	0	0	508	503	0	501	39	21	
5	0	0	0	0	507	506	0	495	39	22	
6	0	0	0	0	506	510	0	490	39	24	
7	0	0	0	0	508	509	0	486	39	26	
8	0	0	0	0	508	509	0	482	39	28	
9	0	0	0	0	507	512	0	480	39	28	
10	0	0	0	0	511	514	0	486	39	26	
11	0	0	0	0	508	506	0	512	39	23	
12	0	0	0	0	507	505	0	523	39	21	
13	0	0	0	0	509	510	0	518	39	21	
14	0	0	0	0	511	508	0	510	39	24	
15	0	0	0	0	513	506	0	503	39	26	
0	0	0	0	0	499	508	0	496	39	27	
1	0	0	0	0	511	513	0	491	39	28	
2	0	0	0	0	508	514	0	502	39	27	
3	0	0	0	0	502	513	0	521	39	24	
4	0	0	0	0	508	517	0	522	39	22	
5	0	0	0	0	508	519	0	517	39	21	
6	0	0	0	0	509	518	0	530	39	23	
7	0	0	0	0	508	519	0	532	39	25	
8	0	0	0	0	513	517	0	521	39	27	
9	0	0	0	0	508	514	0	510	39	28	
10	0	0	0	0	508	516	0	500	39	27	
11	0	0	0	0	511	518	0	493	39	25	
12	0	0	0	0	506	515	0	487	39	22	
13	0	0	0	0	512	509	0	483	39	21	
14	0	0	0	0	506	509	0	483	39	22	
15	0	0	0	0	507	511	0	495	39	24	
0	0	0	0	0	501	513	0	484	39	26	
1	0	0	0	0	507	514	0	498	39	28	
2	0	0	0	0	507	513	0	520	39	28	
3	0	0	0	0	509	505	0	524	39	26	
4	0	0	0	0	513	497	0	521	39	23	
5	0	0	0	0	511	500	0	521	39	21	
6	0	0	0	0	507	505	0	513	39	21	
7	0	0	0	0	508	508	0	516	39	24	
8	0	0	0	0	511	513	0	531	39	26	
9	0	0	0	0	508	516	0	529	39	27	
10	0	0	0	0	512	518	0	519	39	28	
11	0	0	0	0	510	513	0	508	39	27	
12	0	0	0	0	502	509	0	507	39	24	
13	0	0	0	0	508	512	0	507	39	22	
14	0	0	0	0	508	518	0	503	39	21	
15	0	0	0	0	512	521	0	498	39	23	
0	0	0	0	0	510	521	0	491	39	25	
1	0	0	0	0	510	515	0	488	39	27	
2	0	0	0	0	505	510	0	490	39	28	
3	0	0	0	0	509	513	0	514	39	27	
4	0	0	0	0	510	513	0	523	39	25	
5	0	0	0	0	513	515	0	518	39	22	
6	0	0	0	0	505	520	0	523	39	21	
7	0	0	0	0	503	524	0	536	39	22	
8	0	0	0	0	507	519	0	533	39	24	
9	0	0	0	0	507	515	0	523	39	26	
10	0	0	0	0	508	507	0	511	39	28	
11	0	0	0	0	507	508	0	502	39	28	
12	0	0	0	0	508	514	0	497	38	26	
13	0	0	0	0	505	522	0	494	39	23	
14	0	0	0	0	507	526	0	492	39	21	
15	0	0	0	0	511	521	0	504	39	21	
0	0	0	0	0	508	504	0	503	39	24	
1	0	0	0	0	512	487	0	522	39	26	
2	0	0	0	0	504	482	0	525	39	27	
3	0	0	0	0	512	482	0	522	39	28	
4	0	0	0	0	509	483	0	526	39	27	
5	0	0	0	0	503	491	0	525	39	24	
6	0	0	0	0	507	498	0	519	39	22	
7	0	0	0	0	510	504	0	513	39	21	
8	0	0	0	0	512	507	0	509	39	23	
9	0	0	0	0	503	509	0	504	39	25	
10	0	0	0	0	506	512	0	513	39	27	
11	0	0	0	0	512	512	0	537	39	28	
12	0	0	0	0	512	508	0	543	39	27	
13	0	0	0	0	513	507	0	537	39	25	
14	0	0	0	0	507	508	0	526	39	22	
15	0	0	0	0	508	509	0	519	39	21	
0	0	0	0	0	507	510	0	512	39	22	
1	0	0	0	0	507	506	0	503	39	24	
2	0	0	0	0	512	505	0	499	39	26	
3	0	0	0	0	505	504	0	515	39	28	
4	0	0	0	0	505	505	0	536	39	28	
5	0	0	0	0	511	511	0	541	39	26	
6	0	0	0	0	503	519	0	539	39	23	
7	0	0	0	0	513	526	0	553	39	21	
8	0	0	0	0	514	533	0	558	39	21	
9	0	0	0	0	511	529	0	550	39	24	
10	0	0	0	0	508	522	0	540	39	26	
11	0	0	0	0	508	516	0	530	39	27	
12	0	0	0	0	506	511	0	522	39	28	
13	0	0	0	0	510	502	0	515	39	27	
14	0	0	0	0	505	502	0	512	39	24	
15	0	0	0	0	509	508	0	512	39	22	
0	0	0	0	0	505	511	0	513	39	21	
1	0	0	0	0	502	513	0	533	39	23	
2	0	0	0	0	510	512	0	545	39	25	
3	0	0	0	0	508	513	0	544	39	27	
4	0	0	0	0	514	516	0	543	39	28	
5	0	0	0	0	510	515	0	545	39	27	
6	0	0	0	0	514	516	0	540	39	25	
7	0	0	0	0	504	519	0	550	39	22	
8	0	0	0	0	504	522	0	560	39	21	
9	0	0	0	0	502	522	0	557	39	22	
10	0	0	0	0	503	520	0	547	39	24	
11	0	0	0	0	510	518	0	537	39	26	
12	0	0	0	0	511	515	0	527	39	28	
13	0	0	0	0	495	515	0	521	39	28	
14	0	0	0	0	504	518	0	528	39	26	
15	0	0	0	0	509	520	0	516	39	23	
0	0	0	0	0	514	517	0	513	39	21	
1	0	0	0	0	510	514	0	528	39	21	
2	0	0	0	0	514	518	0	550	39	24	
3	0	0	0	0	504	519	0	553	39	26	
4	0	0	0	0	507	519	0	547	39	27	
5	0	0	0	0	513	516	0	537	39	28	
6	0	0	0	0	513	510	0	527	39	27	
7	0	0	0	0	509	504	0	531	39	24	
8	0	0	0	0	506	500	0	543	39	22	
9	0	0	0	0	505	500	0	546	39	21	
10	0	0	0	0	504	508	0	536	39	23	
11	0	0	0	0	506	516	0	528	39	25	
12	0	0	0	0	501	523	0	521	39	27	
13	0	0	0	0	511	530	0	516	39	28	
14	0	0	0	0	509	532	0	514	39	27	
15	0	0	0	0	508	524	0	514	39	25	
0	0	0	0	0	506	516	0	512	39	22	
1	0	0	0	0	509	515	0	524	39	21	
2	0	0	0	0	507	513	0	547	39	22	
3	0	0	0	0	512	516	0	551	39	24	
4	0	0	0	0	516	519	0	547	39	26	
5	0	0	0	0	508	519	0	547	39	28	
6	0	0	0	0	512	519	0	541	39	28	
7	0	0	0	0	511	523	0	539	39	26	
8	0	0	0	0	508	526	0	557	39	23	
9	0	0	0	0	501	524	0	561	39	21	
10	0	0	0	0	502	520	0	551	39	21	
11	0	0	0	0	507	522	0	538	39	24	
12	0	0	0	0	506	528	0	527	39	26	
13	0	0	0	0	510	529	0	518	39	27	
14	0	0	0	0	511	528	0	511	39	28	
15	0	0	0	0	508	533	0	505	39	27	
0	0	0	0	0	513	538	0	513	39	24	
1	0	0	0	0	512	539	0	530	39	22	
2	0	0	0	0	509	539	0	534	39	21	
3	0	0	0	0	507	540	0	529	39	23	
4	0	0	0	0	507	532	0	523	39	25	
5	0	0	0	0	503	525	0	515	39	27	
6	0	0	0	0	495	523	0	507	39	28	
7	0	0	0	0	507	523	0	503	39	27	
8	0	0	0	0	505	523	0	500	39	25	
9	0	0	0	0	505	527	0	514	39	22	
10	0	0	0	0	515	528	0	535	39	21	
11	0	0	0	0	513	516	0	537	39	22	
12	0	0	0	0	516	507	0	532	39	24	
13	0	0	0	0	502	508	0	523	39	26	
14	0	0	0	0	511	502	0	513	39	28	
15	0	0	0	0	508	506	0	517	39	28	
0	0	0	0	0	503	519	0	531	39	26	
1	0	0	0	0	508	520	0	528	39	23	
2	0	0	0	0	512	515	0	520	39	21	
3	0	0	0	0	503	515	0	523	39	21	
4	0	0	0	0	504	513	0	519	39	24	
5	0	0	0	0	506	512	0	510	39	26	
6	0	0	0	0	517	511	0	504	39	27	
7	0	0	0	0	512	508	0	497	39	28	
8	0	0	0	0	507	506	0	493	39	27	
9	0	0	0	0	505	505	0	490	39	24	
10	0	0	0	0	499	508	0	495	39	22	
11	0	0	0	0	504	507	0	520	39	21	
12	0	0	0	0	516	507	0	531	39	23	
13	0	0	0	0	508	508	0	544	39	25	
14	0	0	0	0	509	508	0	556	39	27	
15	0	0	0	0	509	509	0	556	39	28	
0	0	0	0	0	510	514	0	566	39	27	
1	0	0	0	0	509	508	0	561	39	25	
2	0	0	0	0	505	495	0	545	39	22	
3	0	0	0	0	512	495	0	527	39	21	
4	0	0	0	0	515	500	0	511	39	22	
5	0	0	0	0	506	501	0	498	39	24	
6	0	0	0	0	508	499	0	490	39	26	
7	0	0	0	0	499	496	0	485	39	28	
8	0	0	0	0	506	495	0	493	39	28	
9	0	0	0	0	506	497	0	510	39	26	
10	0	0	0	0	514	499	0	515	39	23	
11	0	0	0	0	508	497	0	509	39	21	
12	0	0	0	0	506	497	0	501	39	21	
13	0	0	0	0	509	507	0	494	39	24	
14	0	0	0	0	510	510	0	489	39	26	
15	0	0	0	0	511	506	0	495	39	27	
0	0	0	0	0	507	505	0	478	39	28	
1	0	0	0	0	508	508	0	472	39	27	
2	0	0	0	0	505	512	0	472	39	24	
3	0	0	0	0	513	505	0	473	39	22	
4	0	0	0	0	504	495	0	475	39	21	
5	0	0	0	0	507	497	0	476	39	23	
6	0	0	0	0	511	501	0	475	39	25	
7	0	0	0	0	507	497	0	473	39	27	
8	0	0	0	0	502	499	0	470	39	28	
9	0	0	0	0	508	498	0	466	39	27	
10	0	0	0	0	507	500	0	464	39	25	
11	0	0	0	0	508	502	0	467	39	22	
12	0	0	0	0	510	502	0	470	39	21	
13	0	0	0	0	507	504	0	492	39	22	
14	0	0	0	0	503	504	0	479	39	24	
15	0	0	0	0	500	504	0	480	39	26	
0	0	0	0	0	510	506	0	477	39	28	
1	0	0	0	0	511	505	0	487	39	28	
2	0	0	0	0	511	504	0	514	39	26	
3	0	0	0	0	506	508	0	524	39	23	
4	0	0	0	0	506	508	0	521	39	21	
5	0	0	0	0	505	502	0	514	39	21	
6	0	0	0	0	508	503	0	505	39	23	
7	0	0	0	0	516	503	0	506	39	26	
8	0	0	0	0	511	499	0	529	39	27	
9	0	0	0	0	510	501	0	537	39	28	
10	0	0	0	0	508	503	0	549	39	27	
11	0	0	0	0	510	498	0	561	39	24	
12	0	0	0	0	507	491	0	562	39	22	
13	0	0	0	0	512	491	0	574	39	21	
14	0	0	0	0	511	493	0	568	39	23	
15	0	0	0	0	507	497	0	568	39	25	
0	0	0	0	0	502	499	0	566	39	27	
1	0	0	0	0	508	501	0	551	39	28	
2	0	0	0	0	501	508	0	536	39	27	
3	0	0	0	0	512	514	0	534	39	25	
4	0	0	0	0	520	516	0	521	39	22	
5	0	0	0	0	514	522	0	512	39	21	
6	0	0	0	0	508	531	0	506	39	22	
7	0	0	0	0	509	532	0	500	39	24	
8	0	0	0	0	500	535	0	497	39	26	
9	0	0	0	0	504	547	0	495	39	28	
10	0	0	0	0	509	564	0	505	39	28	
11	0	0	0	0	511	582	0	531	39	26	
12	0	0	0	0	504	600	0	539	39	23	
13	0	0	0	0	506	604	0	533	39	21	
14	0	0	0	0	513	598	0	524	39	21	
15	0	0	0	0	509	601	0	514	39	24	
0	0	0	0	0	504	624	0	511	39	26	
1	0	0	0	0	508	643	0	527	39	27	
2	0	0	0	0	508	653	0	531	39	28	
3	0	0	0	0	512	664	0	524	39	27	
4	0	0	0	0	515	671	0	516	39	24	
5	0	0	0	0	505	683	0	508	39	22	
6	0	0	0	0	510	689	0	503	39	21	
7	0	0	0	0	502	696	0	498	39	23	
8	0	0	0	0	505	705	0	511	39	25	
9	0	0	0	0	508	715	0	523	39	27	
10	0	0	0	0	504	727	0	524	39	28	
11	0	0	0	0	518	736	0	535	39	27	
12	0	0	0	0	507	739	0	512	39	25	
13	0	0	0	0	508	740	0	504	39	22	
14	0	0	0	0	507	734	0	499	39	21	
15	0	0	0	0	504	728	0	495	39	22	
0	0	0	0	0	507	722	0	496	39	24	
1	0	0	0	0	504	714	0	516	39	26	
2	0	0	0	0	509	704	0	532	39	28	
3	0	0	0	0	507	692	0	531	39	28	
4	0	0	0	0	506	679	0	529	39	26	
5	0	0	0	0	513	663	0	529	39	23	
6	0	0	0	0	510	636	0	523	39	21	
7	0	0	0	0	505	603	0	531	39	21	
8	0	0	0	0	506	582	0	547	39	24	
9	0	0	0	0	509	578	0	543	39	26	
10	0	0	0	0	507	566	0	533	39	27	
11	0	0	0	0	514	539	0	521	39	28	
12	0	0	0	0	513	519	0	511	39	27	
13	0	0	0	0	504	495	0	504	39	24	
14	0	0	0	0	500	481	0	502	39	22	
15	0	0	0	0	505	470	0	501	39	21	
0	0	0	0	0	509	456	0	500	39	23	
1	0	0	0	0	514	449	0	518	39	25	
2	0	0	0	0	511	440	0	542	39	27	
3	0	0	0	0	509	434	0	548	39	28	
4	0	0	0	0	503	429	0	542	39	27	
5	0	0	0	0	513	424	0	533	39	25	
6	0	0	0	0	506	425	0	523	39	22	
7	0	0	0	0	508	428	0	528	39	21	
8	0	0	0	0	503	428	0	541	39	22	
9	0	0	0	0	504	424	0	537	39	24	
10	0	0	0	0	511	420	0	530	39	26	
11	0	0	0	0	508	419	0	521	39	28	
12	0	0	0	0	515	423	0	512	39	28	
13	0	0	0	0	504	423	0	508	39	26	
14	0	0	0	0	497	421	0	506	39	23	
15	0	0	0	0	508	421	0	504	39	21	
0	0	0	0	0	506	421	0	519	39	21	
1	0	0	0	0	513	424	0	534	39	24	
2	0	0	0	0	510	428	0	536	39	26	
3	0	0	0	0	505	431	0	535	39	27	
4	0	0	0	0	509	430	0	539	39	28	
5	0	0	0	0	511	432	0	534	39	27	
6	0	0	0	0	507	436	0	527	39	24	
7	0	0	0	0	510	441	0	521	39	22	
8	0	0	0	0	507	443	0	515	39	21	
9	0	0	0	0	509	439	0	510	39	23	
10	0	0	0	0	507	435	0	524	39	25	
11	0	0	0	0	512	435	0	546	39	27	
12	0	0	0	0	507	437	0	547	39	28	
13	0	0	0	0	502	442	0	540	39	27	
14	0	0	0	0	507	451	0	532	39	25	
15	0	0	0	0	501	457	0	520	39	22	
0	0	0	0	0	500	458	0	510	39	21	
1	0	0	0	0	516	463	0	512	39	22	
2	0	0	0	0	506	466	0	534	39	24	
3	0	0	0	0	511	469	0	540	39	26	
4	0	0	0	0	510	475	0	536	39	28	
5	0	0	0	0	511	472	0	526	39	28	
6	0	0	0	0	510	460	0	519	39	26	
7	0	0	0	0	510	458	0	515	39	23	
8	0	0	0	0	504	461	0	529	39	21	
9	0	0	0	0	510	464	0	537	39	21	
10	0	0	0	0	508	466	0	534	39	23	
11	0	0	0	0	506	467	0	526	39	26	
12	0	0	0	0	510	466	0	517	39	27	
13	0	0	0	0	511	464	0	510	39	28	
14	0	0	0	0	510	467	0	504	39	27	
15	0	0	0	0	512	473	0	499	39	24	
0	0	0	0	0	510	475	0	505	39	22	
1	0	0	0	0	509	473	0	527	39	21	
2	0	0	0	0	508	473	0	535	39	23	
3	0	0	0	0	512	476	0	531	39	25	
4	0	0	0	0	512	483	0	535	39	27	
5	0	0	0	0	508	488	0	534	39	28	
6	0	0	0	0	504	484	0	528	39	27	
7	0	0	0	0	506	481	0	521	39	25	
8	0	0	0	0	507	482	0	514	39	22	
9	0	0	0	0	506	479	0	522	39	21	
10	0	0	0	0	504	478	0	541	39	22	
11	0	0	0	0	509	476	0	545	39	24	
12	0	0	0	0	510	479	0	537	39	26	
13	0	0	0	0	512	486	0	525	39	28	
14	0	0	0	0	511	495	0	516	39	28	
15	0	0	0	0	509	502	0	508	39	26	
0	0	0	0	0	508	503	0	506	39	23	
1	0	0	0	0	508	501	0	523	39	21	
2	0	0	0	0	503	490	0	536	39	21	
3	0	0	0	0	509	478	0	533	39	23	
4	0	0	0	0	512	472	0	527	39	26	
5	0	0	0	0	503	471	0	518	39	27	
6	0	0	0	0	506	475	0	510	39	28	
7	0	0	0	0	507	476	0	502	39	27	
8	0	0	0	0	510	480	0	508	39	24	
9	0	0	0	0	510	481	0	523	39	22	
10	0	0	0	0	510	475	0	531	39	21	
11	0	0	0	0	513	474	0	523	39	23	
12	0	0	0	0	508	481	0	513	39	25	
13	0	0	0	0	502	483	0	507	39	27	
14	0	0	0	0	504	485	0	501	39	28	
15	0	0	0	0	507	489	0	499	39	28	
0	0	0	0	0	505	495	0	497	39	25	
1	0	0	0	0	508	500	0	513	39	22	
2	0	0	0	0	504	505	0	531	39	21	
3	0	0	0	0	512	504	0	534	39	22	
4	0	0	0	0	513	502	0	529	39	24	
5	0	0	0	0	509	502	0	531	39	26	
6	0	0	0	0	504	503	0	523	39	28	
7	0	0	0	0	502	500	0	525	39	28	
8	0	0	0	0	510	500	0	542	39	26	
9	0	0	0	0	513	496	0	543	39	23	
10	0	0	0	0	509	493	0	532	39	21	
11	0	0	0	0	511	498	0	519	39	21	
12	0	0	0	0	509	497	0	508	39	23	
13	0	0	0	0	506	493	0	499	39	26	
14	0	0	0	0	511	491	0	494	39	27	
15	0	0	0	0	508	484	0	492	39	28	
0	0	0	0	0	497	481	0	493	39	27	
1	0	0	0	0	499	486	0	501	39	24	
2	0	0	0	0	508	496	0	524	39	22	
3	0	0	0	0	504	506	0	529	39	21	
4	0	0	0	0	510	508	0	523	39	23	
5	0	0	0	0	517	513	0	512	39	25	
6	0	0	0	0	511	520	0	504	39	27	
7	0	0	0	0	510	518	0	502	39	28	
8	0	0	0	0	514	507	0	519	39	27	
9	0	0	0	0	507	507	0	526	39	25	
10	0	0	0	0	511	512	0	521	39	22	
11	0	0	0	0	508	511	0	514	39	21	
12	0	0	0	0	505	500	0	507	39	22	
13	0	0	0	0	509	491	0	501	39	24	
14	0	0	0	0	505	494	0	497	39	26	
15	0	0	0	0	510	498	0	493	39	28	
0	0	0	0	0	512	501	0	502	39	28	
1	0	0	0	0	511	502	0	526	39	26	
2	0	0	0	0	507	500	0	527	39	23	
3	0	0	0	0	508	499	0	520	39	21	
4	0	0	0	0	511	499	0	510	39	21	
5	0	0	0	0	510	503	0	502	39	23	
6	0	0	0	0	511	502	0	502	39	26	
7	0	0	0	0	499	500	0	507	39	27	
8	0	0	0	0	510	503	0	505	39	28	
9	0	0	0	0	502	514	0	519	39	27	
10	0	0	0	0	515	522	0	534	39	24	
11	0	0	0	0	506	522	0	532	39	22	
12	0	0	0	0	506	516	0	523	39	21	
13	0	0	0	0	512	511	0	511	39	23	
14	0	0	0	0	510	510	0	500	39	25	
15	0	0	0	0	508	514	0	492	39	27	
0	0	0	0	0	509	517	0	491	39	28	
1	0	0	0	0	507	526	0	509	39	27	
2	0	0	0	0	507	528	0	524	39	25	
3	0	0	0	0	503	529	0	510	39	22	
4	0	0	0	0	512	530	0	499	39	21	
5	0	0	0	0	513	533	0	492	39	22	
6	0	0	0	0	509	525	0	485	39	24	
7	0	0	0	0	510	519	0	480	39	26	
8	0	0	0	0	507	520	0	492	39	28	
9	0	0	0	0	505	526	0	503	39	28	
10	0	0	0	0	505	525	0	503	39	26	
11	0	0	0	0	507	521	0	497	39	23	
12	0	0	0	0	508	513	0	488	39	21	
13	0	0	0	0	509	510	0	480	39	21	
14	0	0	0	0	512	508	0	473	39	23	
15	0	0	0	0	509	510	0	468	39	26	
0	0	0	0	0	509	504	0	469	39	27	
1	0	0	0	0	511	497	0	486	39	28	
2	0	0	0	0	503	501	0	497	39	27	
3	0	0	0	0	509	515	0	495	39	24	
4	0	0	0	0	511	530	0	494	39	22	
5	0	0	0	0	513	536	0	495	39	21	
6	0	0	0	0	514	534	0	488	39	23	
7	0	0	0	0	502	531	0	497	39	25	
8	0	0	0	0	507	529	0	509	39	27	
9	0	0	0	0	511	526	0	506	39	28	
10	0	0	0	0	507	524	0	496	39	28	
11	0	0	0	0	510	527	0	485	39	25	
12	0	0	0	0	504	534	0	475	39	22	
13	0	0	0	0	507	537	0	467	39	21	
14	0	0	0	0	504	535	0	463	39	22	
15	0	0	0	0	502	535	0	460	39	24	
0	0	0	0	0	511	532	0	457	39	26	
1	0	0	0	0	512	535	0	473	39	28	
2	0	0	0	0	514	536	0	494	39	28	
3	0	0	0	0	507	528	0	495	39	26	
4	0	0	0	0	513	529	0	504	39	23	
5	0	0	0	0	500	532	0	480	39	21	
6	0	0	0	0	511	536	0	472	39	21	
7	0	0	0	0	502	544	0	477	39	23	
8	0	0	0	0	508	545	0	488	39	26	
9	0	0	0	0	512	542	0	483	39	27	
10	0	0	0	0	507	540	0	476	39	28	
11	0	0	0	0	509	545	0	468	39	27	
12	0	0	0	0	512	548	0	463	39	24	
13	0	0	0	0	507	550	0	458	39	22	
14	0	0	0	0	510	550	0	456	39	21	
15	0	0	0	0	504	548	0	455	39	23	
0	0	0	0	0	505	550	0	455	39	25	
1	0	0	0	0	514	553	0	466	39	27	
2	0	0	0	0	510	553	0	489	39	28	
3	0	0	0	0	503	553	0	496	39	28	
4	0	0	0	0	503	550	0	492	39	25	
5	0	0	0	0	516	548	0	494	39	23	
6	0	0	0	0	506	549	0	501	39	21	
7	0	0	0	0	510	552	0	491	39	22	
8	0	0	0	0	508	553	0	510	39	24	
9	0	0	0	0	510	555	0	514	39	26	
10	0	0	0	0	508	556	0	505	39	28	
11	0	0	0	0	507	552	0	494	39	28	
12	0	0	0	0	508	553	0	484	39	26	
13	0	0	0	0	507	551	0	477	39	23	
14	0	0	0	0	508	549	0	470	39	21	
15	0	0	0	0	513	558	0	463	39	21	
0	0	0	0	0	510	571	0	461	39	23	
1	0	0	0	0	506	574	0	464	39	26	
2	0	0	0	0	507	567	0	486	39	27	
3	0	0	0	0	509	551	0	494	39	28	
4	0	0	0	0	508	542	0	490	39	27	
5	0	0	0	0	512	543	0	483	39	24	
6	0	0	0	0	511	547	0	476	39	22	
7	0	0	0	0	508	551	0	475	39	21	
8	0	0	0	0	503	555	0	491	39	23	
9	0	0	0	0	511	556	0	500	39	25	
10	0	0	0	0	511	558	0	498	39	27	
11	0	0	0	0	509	563	0	490	39	28	
12	0	0	0	0	508	561	0	484	39	28	
13	0	0	0	0	513	560	0	478	39	25	
14	0	0	0	0	505	559	0	473	39	23	
15	0	0	0	0	499	556	0	469	39	21	
0	0	0	0	0	505	553	0	474	39	22	
1	0	0	0	0	503	550	0	495	39	24	
2	0	0	0	0	507	550	0	502	39	26	
3	0	0	0	0	512	553	0	499	39	28	
4	0	0	0	0	507	555	0	502	39	28	
5	0	0	0	0	510	555	0	502	39	26	
6	0	0	0	0	513	552	0	496	39	23	
7	0	0	0	0	510	548	0	490	39	21	
8	0	0	0	0	510	547	0	481	39	21	
9	0	0	0	0	504	549	0	474	39	23	
10	0	0	0	0	505	552	0	477	39	26	
11	0	0	0	0	508	555	0	500	39	27	
12	0	0	0	0	518	554	0	508	39	28	
13	0	0	0	0	505	551	0	505	39	27	
14	0	0	0	0	507	542	0	510	39	24	
15	0	0	0	0	511	527	0	526	39	22	
0	0	0	0	0	506	519	0	525	39	21	
1	0	0	0	0	508	521	0	525	39	23	
2	0	0	0	0	508	518	0	514	39	25	
3	0	0	0	0	505	515	0	503	39	27	
4	0	0	0	0	503	511	0	503	39	28	
5	0	0	0	0	511	510	0	489	39	28	
6	0	0	0	0	506	511	0	484	39	25	
7	0	0	0	0	508	511	0	479	39	23	
8	0	0	0	0	511	508	0	476	39	21	
9	0	0	0	0	513	506	0	477	39	22	
10	0	0	0	0	508	503	0	479	39	24	
11	0	0	0	0	505	501	0	501	39	26	
12	0	0	0	0	503	492	0	517	39	28	
13	0	0	0	0	511	486	0	516	39	28	
14	0	0	0	0	507	487	0	516	39	26	
15	0	0	0	0	514	486	0	533	39	23	
0	0	0	0	0	515	488	0	536	39	21	
1	0	0	0	0	504	491	0	526	39	21	
2	0	0	0	0	508	491	0	524	39	23	
3	0	0	0	0	502	490	0	519	39	26	
4	0	0	0	0	505	488	0	511	39	27	
5	0	0	0	0	517	484	0	503	39	28	
6	0	0	0	0	506	485	0	496	39	27	
7	0	0	0	0	508	485	0	489	39	24	
8	0	0	0	0	505	480	0	487	39	22	
9	0	0	0	0	506	472	0	489	39	21	
10	0	0	0	0	509	467	0	512	39	23	
11	0	0	0	0	516	467	0	525	39	25	
12	0	0	0	0	507	468	0	523	39	27	
13	0	0	0	0	511	470	0	516	39	28	
14	0	0	0	0	504	471	0	509	39	28	
15	0	0	0	0	501	469	0	503	39	25	
0	0	0	0	0	505	470	0	512	39	23	
1	0	0	0	0	508	470	0	523	39	21	
2	0	0	0	0	517	469	0	523	39	22	
3	0	0	0	0	506	470	0	515	39	24	
4	0	0	0	0	504	468	0	507	39	26	
5	0	0	0	0	512	464	0	496	39	28	
6	0	0	0	0	511	461	0	491	39	28	
7	0	0	0	0	503	459	0	487	39	26	
8	0	0	0	0	507	466	0	488	39	23	
9	0	0	0	0	508	468	0	508	39	21	
10	0	0	0	0	507	465	0	523	39	21	
11	0	0	0	0	522	463	0	524	39	23	
12	0	0	0	0	511	463	0	518	39	26	
13	0	0	0	0	510	463	0	508	39	27	
14	0	0	0	0	505	463	0	501	39	28	
15	0	0	0	0	511	464	0	494	39	27	
0	0	0	0	0	504	463	0	502	39	24	
1	0	0	0	0	508	462	0	520	39	22	
2	0	0	0	0	507	458	0	524	39	21	
3	0	0	0	0	510	455	0	518	39	23	
4	0	0	0	0	510	457	0	509	39	25	
5	0	0	0	0	510	464	0	512	39	27	
6	0	0	0	0	510	467	0	513	39	28	
7	0	0	0	0	508	467	0	511	39	28	
8	0	0	0	0	510	466	0	528	39	25	
9	0	0	0	0	506	466	0	538	39	23	
10	0	0	0	0	508	470	0	533	39	21	
11	0	0	0	0	504	470	0	524	39	22	
12	0	0	0	0	508	470	0	512	39	24	
13	0	0	0	0	504	473	0	504	39	26	
14	0	0	0	0	504	474	0	495	39	28	
15	0	0	0	0	504	474	0	488	39	28	
0	0	0	0	0	510	476	0	486	39	26	
1	0	0	0	0	513	475	0	487	39	23	
2	0	0	0	0	513	475	0	509	39	21	
3	0	0	0	0	506	476	0	525	39	21	
4	0	0	0	0	507	473	0	525	39	23	
5	0	0	0	0	504	465	0	519	39	26	
6	0	0	0	0	505	463	0	511	39	27	
7	0	0	0	0	509	467	0	504	39	28	
8	0	0	0	0	506	475	0	513	39	27	
9	0	0	0	0	514	479	0	523	39	24	
10	0	0	0	0	515	471	0	524	39	22	
11	0	0	0	0	501	462	0	517	39	21	
12	0	0	0	0	511	457	0	508	39	23	
13	0	0	0	0	507	460	0	499	39	25	
14	0	0	0	0	503	463	0	494	39	27	
15	0	0	0	0	509	464	0	491	39	28	
0	0	0	0	0	517	457	0	491	39	28	
1	0	0	0	0	514	458	0	511	39	25	
2	0	0	0	0	509	457	0	526	39	23	
3	0	0	0	0	512	455	0	525	39	21	
4	0	0	0	0	510	455	0	518	39	22	
5	0	0	0	0	505	453	0	508	39	24	
6	0	0	0	0	504	454	0	498	39	26	
7	0	0	0	0	511	463	0	487	39	28	
8	0	0	0	0	510	471	0	478	39	28	
9	0	0	0	0	512	475	0	470	39	26	
10	0	0	0	0	513	476	0	469	39	23	
11	0	0	0	0	507	477	0	469	39	21	
12	0	0	0	0	504	478	0	471	39	21	
13	0	0	0	0	503	478	0	472	39	23	
14	0	0	0	0	505	470	0	474	39	26	
15	0	0	0	0	508	468	0	474	39	27	
0	0	0	0	0	504	475	0	474	39	28	
1	0	0	0	0	514	484	0	471	39	27	
2	0	0	0	0	509	492	0	473	39	24	
3	0	0	0	0	510	492	0	473	39	22	
4	0	0	0	0	511	489	0	473	39	21	
5	0	0	0	0	512	486	0	475	39	23	
6	0	0	0	0	507	484	0	476	39	25	
7	0	0	0	0	505	485	0	476	39	27	
8	0	0	0	0	508	485	0	472	39	28	
9	0	0	0	0	510	481	0	467	39	28	
10	0	0	0	0	512	485	0	467	39	25	
11	0	0	0	0	509	494	0	487	39	23	
12	0	0	0	0	512	497	0	507	39	21	
13	0	0	0	0	514	500	0	517	39	22	
14	0	0	0	0	511	502	0	539	39	24	
15	0	0	0	0	505	500	0	544	39	26	
0	0	0	0	0	501	499	0	551	39	28	
1	0	0	0	0	509	497	0	554	39	28	
2	0	0	0	0	508	494	0	549	39	26	
3	0	0	0	0	508	494	0	558	39	23	
4	0	0	0	0	505	491	0	555	39	21	
5	0	0	0	0	508	486	0	540	39	21	
6	0	0	0	0	512	482	0	534	39	23	
7	0	0	0	0	512	482	0	542	39	26	
8	0	0	0	0	509	484	0	536	39	27	
9	0	0	0	0	504	487	0	520	39	28	
10	0	0	0	0	508	485	0	519	39	27	
11	0	0	0	0	501	487	0	492	39	24	
12	0	0	0	0	502	492	0	482	39	22	
13	0	0	0	0	509	495	0	476	39	21	
14	0	0	0	0	511	496	0	474	39	23	
15	0	0	0	0	511	496	0	473	39	25	
0	0	0	0	0	515	486	0	481	39	27	
1	0	0	0	0	511	478	0	498	39	28	
2	0	0	0	0	512	481	0	502	39	28	
3	0	0	0	0	511	488	0	499	39	25	
4	0	0	0	0	507	491	0	493	39	23	
5	0	0	0	0	505	492	0	488	39	21	
6	0	0	0	0	508	490	0	485	39	22	
7	0	0	0	0	510	493	0	481	39	24	
8	0	0	0	0	508	497	0	480	39	26	
9	0	0	0	0	504	507	0	495	39	28	
10	0	0	0	0	512	507	0	512	39	28	
11	0	0	0	0	511	499	0	513	39	26	
12	0	0	0	0	509	496	0	507	38	23	
13	0	0	0	0	507	495	0	497	39	21	
14	0	0	0	0	507	495	0	488	39	21	
15	0	0	0	0	504	499	0	493	39	23	
0	0	0	0	0	506	500	0	506	39	26	
1	0	0	0	0	511	504	0	505	39	27	
2	0	0	0	0	506	511	0	499	39	28	
3	0	0	0	0	505	519	0	507	39	27	
