# OpenSignals Text File Format. Version 1
# {"98:D3:71:FD:62:12": {"position": 0, "device": "bitalino_rev", "device name": "98:D3:71:FD:62:12", "device connection": "BTH98:D3:71:FD:62:12", "sampling rate": 1000, "resolution": [4, 1, 1, 1, 1, 10, 10, 10, 10, 6, 6], "firmware version": 1282, "comments": "", "keywords": "", "mode": 0, "sync interval": 2, "date": "2024-4-19", "time": "10:1:3.55", "channels": [1, 2, 3, 4, 5, 6], "sensor": ["RAW", "RAW", "RAW", "RAW", "RAW", "RAW"], "label": ["A1", "A2", "A3", "A4", "A5", "A6"], "column": ["nSeq", "I1", "I2", "O1", "O2", "A1", "A2", "A3", "A4", "A5", "A6"], "special": [{}, {}, {}, {}, {}, {}], "digital IO": [0, 0, 1, 1], "convertedValues": 0}}
# EndOfHeader
0	0	0	0	0	512	481	0	538	39	29	
1	0	0	0	0	506	474	0	536	39	28	
2	0	0	0	0	507	475	0	536	39	25	
3	0	0	0	0	508	472	0	535	39	22	
4	0	0	0	0	504	470	0	535	39	22	
5	0	0	0	0	508	472	0	536	39	24	
6	0	0	0	0	510	473	0	537	39	27	
7	0	0	0	0	506	479	0	535	39	28	
8	0	0	0	0	510	485	0	529	39	29	
9	0	0	0	0	508	488	0	527	39	28	
10	0	0	0	0	506	489	0	528	39	26	
11	0	0	0	0	510	492	0	530	39	23	
12	0	0	0	0	508	496	0	531	39	22	
13	0	0	0	0	510	501	0	532	39	24	
14	0	0	0	0	510	499	0	531	39	26	
15	0	0	0	0	505	494	0	530	39	28	
0	0	0	0	0	503	488	0	526	39	29	
1	0	0	0	0	510	484	0	521	39	29	
2	0	0	0	0	509	482	0	522	39	27	
3	0	0	0	0	507	479	0	523	39	24	
4	0	0	0	0	508	473	0	534	39	22	
5	0	0	0	0	509	470	0	555	39	23	
6	0	0	0	0	502	471	0	583	39	25	
7	0	0	0	0	508	475	0	592	39	27	
8	0	0	0	0	506	476	0	597	39	29	
9	0	0	0	0	510	475	0	606	39	29	
10	0	0	0	0	507	476	0	600	39	28	
11	0	0	0	0	505	480	0	586	39	25	
12	0	0	0	0	504	484	0	571	39	22	
13	0	0	0	0	504	488	0	559	39	22	
14	0	0	0	0	512	486	0	549	39	24	
15	0	0	0	0	508	483	0	544	39	27	
0	0	0	0	0	508	481	0	540	39	28	
1	0	0	0	0	509	482	0	555	39	29	
2	0	0	0	0	508	485	0	572	39	28	
3	0	0	0	0	508	488	0	575	39	26	
4	0	0	0	0	510	492	0	569	39	23	
5	0	0	0	0	506	483	0	572	39	22	
6	0	0	0	0	512	480	0	565	39	24	
7	0	0	0	0	509	483	0	569	39	26	
8	0	0	0	0	508	488	0	585	39	28	
9	0	0	0	0	511	493	0	584	39	29	
10	0	0	0	0	507	496	0	576	39	29	
11	0	0	0	0	505	491	0	564	39	27	
12	0	0	0	0	513	489	0	553	39	24	
13	0	0	0	0	513	483	0	545	39	22	
14	0	0	0	0	510	485	0	540	39	23	
15	0	0	0	0	504	482	0	536	39	25	
0	0	0	0	0	503	478	0	535	39	27	
1	0	0	0	0	508	477	0	544	39	29	
2	0	0	0	0	512	480	0	568	39	29	
3	0	0	0	0	506	483	0	573	39	28	
4	0	0	0	0	507	486	0	567	39	25	
5	0	0	0	0	508	489	0	558	39	22	
6	0	0	0	0	504	494	0	549	39	22	
7	0	0	0	0	504	498	0	548	39	24	
8	0	0	0	0	503	501	0	564	39	27	
9	0	0	0	0	509	501	0	569	39	28	
10	0	0	0	0	504	498	0	581	39	29	
11	0	0	0	0	509	495	0	593	39	28	
12	0	0	0	0	513	494	0	587	39	26	
13	0	0	0	0	509	493	0	572	39	23	
14	0	0	0	0	513	496	0	556	39	22	
15	0	0	0	0	505	497	0	538	39	24	
0	0	0	0	0	505	495	0	536	39	26	
1	0	0	0	0	505	496	0	551	39	28	
2	0	0	0	0	508	499	0	552	39	29	
3	0	0	0	0	504	501	0	548	39	29	
4	0	0	0	0	511	501	0	551	39	27	
5	0	0	0	0	506	504	0	549	39	24	
6	0	0	0	0	514	505	0	543	39	22	
7	0	0	0	0	503	504	0	538	39	23	
8	0	0	0	0	500	496	0	532	39	25	
9	0	0	0	0	512	496	0	527	39	27	
10	0	0	0	0	512	495	0	536	39	29	
11	0	0	0	0	510	495	0	560	39	29	
12	0	0	0	0	505	493	0	567	39	28	
13	0	0	0	0	513	495	0	562	39	25	
14	0	0	0	0	508	497	0	571	39	22	
15	0	0	0	0	505	499	0	584	39	22	
0	0	0	0	0	508	500	0	583	39	24	
1	0	0	0	0	512	499	0	594	39	27	
2	0	0	0	0	504	497	0	591	39	28	
3	0	0	0	0	511	502	0	576	39	29	
4	0	0	0	0	504	507	0	562	39	28	
5	0	0	0	0	505	508	0	551	39	26	
6	0	0	0	0	507	504	0	541	39	23	
7	0	0	0	0	504	499	0	535	39	22	
8	0	0	0	0	511	493	0	547	39	24	
9	0	0	0	0	511	487	0	561	39	26	
10	0	0	0	0	509	491	0	560	39	28	
11	0	0	0	0	506	492	0	554	39	29	
12	0	0	0	0	514	495	0	545	39	29	
13	0	0	0	0	503	496	0	537	39	27	
14	0	0	0	0	504	496	0	532	39	24	
15	0	0	0	0	515	498	0	530	39	22	
0	0	0	0	0	514	499	0	531	39	23	
1	0	0	0	0	505	498	0	552	39	25	
2	0	0	0	0	511	496	0	568	39	27	
3	0	0	0	0	507	497	0	565	39	29	
4	0	0	0	0	508	496	0	565	39	29	
5	0	0	0	0	508	500	0	565	39	27	
6	0	0	0	0	505	503	0	556	39	25	
7	0	0	0	0	499	509	0	566	39	22	
8	0	0	0	0	504	511	0	576	39	22	
9	0	0	0	0	519	509	0	573	39	24	
10	0	0	0	0	512	506	0	563	39	27	
11	0	0	0	0	502	502	0	552	39	29	
12	0	0	0	0	513	496	0	542	39	29	
13	0	0	0	0	512	494	0	535	39	28	
14	0	0	0	0	504	496	0	531	39	26	
15	0	0	0	0	503	498	0	529	39	23	
0	0	0	0	0	500	495	0	528	39	22	
1	0	0	0	0	509	497	0	543	39	24	
2	0	0	0	0	510	502	0	566	39	26	
3	0	0	0	0	508	504	0	569	39	28	
4	0	0	0	0	505	500	0	562	39	29	
5	0	0	0	0	510	497	0	552	39	29	
6	0	0	0	0	512	499	0	542	39	27	
7	0	0	0	0	508	503	0	547	39	24	
8	0	0	0	0	503	508	0	559	39	22	
9	0	0	0	0	504	512	0	556	39	23	
10	0	0	0	0	507	515	0	548	39	25	
11	0	0	0	0	512	512	0	539	39	27	
12	0	0	0	0	511	493	0	533	39	29	
13	0	0	0	0	506	483	0	529	39	29	
14	0	0	0	0	504	484	0	526	39	27	
15	0	0	0	0	511	491	0	526	39	25	
0	0	0	0	0	513	497	0	525	39	22	
1	0	0	0	0	516	499	0	536	39	22	
2	0	0	0	0	503	500	0	560	39	24	
3	0	0	0	0	504	500	0	568	39	27	
4	0	0	0	0	507	489	0	566	39	29	
5	0	0	0	0	504	482	0	568	39	29	
6	0	0	0	0	496	488	0	563	39	28	
7	0	0	0	0	511	496	0	563	39	26	
8	0	0	0	0	507	491	0	580	39	23	
9	0	0	0	0	509	484	0	584	39	22	
10	0	0	0	0	507	482	0	576	39	24	
11	0	0	0	0	512	488	0	565	39	26	
12	0	0	0	0	511	496	0	554	39	28	
13	0	0	0	0	508	499	0	546	39	29	
14	0	0	0	0	510	502	0	539	39	29	
15	0	0	0	0	506	506	0	533	39	27	
0	0	0	0	0	506	511	0	541	39	24	
1	0	0	0	0	516	505	0	558	39	22	
2	0	0	0	0	509	499	0	561	39	23	
3	0	0	0	0	502	495	0	557	39	25	
4	0	0	0	0	504	492	0	549	39	27	
5	0	0	0	0	507	493	0	542	39	29	
6	0	0	0	0	508	497	0	537	39	29	
7	0	0	0	0	511	504	0	532	39	27	
8	0	0	0	0	508	506	0	530	39	24	
9	0	0	0	0	510	507	0	546	39	22	
10	0	0	0	0	502	509	0	566	39	22	
11	0	0	0	0	503	511	0	568	39	24	
12	0	0	0	0	507	512	0	561	39	27	
13	0	0	0	0	510	508	0	552	39	28	
14	0	0	0	0	511	505	0	543	39	29	
15	0	0	0	0	511	502	0	546	39	28	
0	0	0	0	0	502	500	0	559	39	25	
1	0	0	0	0	505	499	0	558	39	23	
2	0	0	0	0	511	501	0	552	39	22	
3	0	0	0	0	508	501	0	542	39	24	
4	0	0	0	0	509	504	0	533	39	26	
5	0	0	0	0	503	504	0	536	39	28	
6	0	0	0	0	507	505	0	541	39	29	
7	0	0	0	0	514	507	0	542	39	29	
8	0	0	0	0	502	504	0	557	39	26	
9	0	0	0	0	507	504	0	575	39	23	
10	0	0	0	0	506	503	0	575	39	22	
11	0	0	0	0	510	501	0	567	39	23	
12	0	0	0	0	511	505	0	556	39	25	
13	0	0	0	0	506	508	0	545	39	27	
14	0	0	0	0	512	512	0	536	39	29	
15	0	0	0	0	509	512	0	531	39	29	
0	0	0	0	0	507	513	0	529	39	27	
1	0	0	0	0	503	515	0	548	39	24	
2	0	0	0	0	504	518	0	562	39	22	
3	0	0	0	0	507	518	0	560	39	22	
4	0	0	0	0	511	520	0	552	39	24	
5	0	0	0	0	508	521	0	542	39	27	
6	0	0	0	0	511	521	0	534	39	28	
7	0	0	0	0	509	520	0	526	39	29	
8	0	0	0	0	507	520	0	532	39	28	
9	0	0	0	0	508	521	0	546	39	25	
10	0	0	0	0	509	523	0	546	39	23	
11	0	0	0	0	508	526	0	539	39	22	
12	0	0	0	0	506	522	0	528	39	24	
13	0	0	0	0	509	519	0	518	39	26	
14	0	0	0	0	515	517	0	511	39	28	
15	0	0	0	0	507	510	0	505	39	29	
0	0	0	0	0	502	510	0	501	39	29	
1	0	0	0	0	506	513	0	515	39	26	
2	0	0	0	0	509	518	0	538	39	23	
3	0	0	0	0	509	526	0	543	39	22	
4	0	0	0	0	506	529	0	540	39	23	
5	0	0	0	0	509	529	0	542	39	25	
6	0	0	0	0	512	527	0	536	39	27	
7	0	0	0	0	509	522	0	538	39	29	
8	0	0	0	0	509	515	0	554	39	29	
9	0	0	0	0	509	516	0	555	39	27	
10	0	0	0	0	503	516	0	556	39	24	
11	0	0	0	0	506	511	0	545	39	22	
12	0	0	0	0	505	513	0	532	39	22	
13	0	0	0	0	509	516	0	521	39	24	
14	0	0	0	0	508	519	0	513	39	27	
15	0	0	0	0	514	519	0	506	39	28	
0	0	0	0	0	509	518	0	501	39	29	
1	0	0	0	0	509	515	0	497	39	28	
2	0	0	0	0	504	513	0	496	39	25	
3	0	0	0	0	509	515	0	496	39	23	
4	0	0	0	0	503	519	0	495	39	22	
5	0	0	0	0	507	520	0	495	39	24	
6	0	0	0	0	518	523	0	508	39	26	
7	0	0	0	0	510	526	0	531	39	28	
8	0	0	0	0	499	526	0	540	39	29	
9	0	0	0	0	505	521	0	559	39	29	
10	0	0	0	0	515	507	0	566	39	26	
11	0	0	0	0	515	500	0	558	39	23	
12	0	0	0	0	505	500	0	544	39	22	
13	0	0	0	0	504	499	0	530	39	23	
14	0	0	0	0	504	500	0	519	39	25	
15	0	0	0	0	508	501	0	509	39	27	
0	0	0	0	0	508	501	0	513	39	29	
1	0	0	0	0	512	501	0	528	39	29	
2	0	0	0	0	502	500	0	529	39	27	
3	0	0	0	0	504	502	0	524	39	24	
4	0	0	0	0	507	504	0	527	39	22	
5	0	0	0	0	504	503	0	524	39	22	
6	0	0	0	0	512	501	0	516	39	24	
7	0	0	0	0	505	496	0	508	39	27	
8	0	0	0	0	505	495	0	501	39	28	
9	0	0	0	0	516	498	0	496	39	29	
10	0	0	0	0	513	501	0	504	39	28	
11	0	0	0	0	511	501	0	526	39	25	
12	0	0	0	0	505	499	0	530	39	22	
13	0	0	0	0	508	500	0	523	39	22	
14	0	0	0	0	505	499	0	513	39	24	
15	0	0	0	0	509	497	0	504	39	26	
0	0	0	0	0	509	497	0	503	39	28	
1	0	0	0	0	512	498	0	520	39	29	
2	0	0	0	0	509	498	0	526	39	29	
3	0	0	0	0	507	498	0	520	39	26	
4	0	0	0	0	509	498	0	512	39	23	
5	0	0	0	0	507	501	0	504	39	22	
6	0	0	0	0	506	501	0	498	39	23	
7	0	0	0	0	506	495	0	492	39	25	
8	0	0	0	0	504	493	0	504	39	27	
9	0	0	0	0	511	495	0	515	39	29	
10	0	0	0	0	509	503	0	514	39	29	
11	0	0	0	0	502	508	0	508	39	27	
12	0	0	0	0	511	510	0	502	39	24	
13	0	0	0	0	505	511	0	492	39	22	
14	0	0	0	0	505	511	0	486	39	22	
15	0	0	0	0	514	503	0	482	39	24	
0	0	0	0	0	504	498	0	483	39	27	
1	0	0	0	0	510	498	0	500	39	28	
2	0	0	0	0	507	502	0	515	39	29	
3	0	0	0	0	510	501	0	512	39	28	
4	0	0	0	0	509	501	0	513	39	25	
5	0	0	0	0	505	500	0	513	39	22	
6	0	0	0	0	508	493	0	505	39	22	
7	0	0	0	0	510	486	0	515	39	24	
8	0	0	0	0	505	483	0	525	39	26	
9	0	0	0	0	514	489	0	521	39	28	
10	0	0	0	0	505	496	0	510	39	29	
11	0	0	0	0	507	502	0	500	39	29	
12	0	0	0	0	509	508	0	490	39	26	
13	0	0	0	0	505	504	0	483	39	23	
14	0	0	0	0	511	500	0	479	39	22	
15	0	0	0	0	506	506	0	475	39	23	
0	0	0	0	0	511	508	0	472	39	25	
1	0	0	0	0	510	504	0	471	39	27	
2	0	0	0	0	510	493	0	483	39	29	
3	0	0	0	0	511	487	0	507	39	29	
4	0	0	0	0	508	488	0	515	39	27	
5	0	0	0	0	508	493	0	509	39	24	
6	0	0	0	0	513	497	0	518	39	22	
7	0	0	0	0	508	497	0	523	39	22	
8	0	0	0	0	507	499	0	513	39	24	
9	0	0	0	0	505	499	0	502	39	27	
10	0	0	0	0	513	494	0	491	39	28	
11	0	0	0	0	507	493	0	483	39	29	
12	0	0	0	0	504	499	0	479	39	28	
13	0	0	0	0	507	506	0	477	39	25	
14	0	0	0	0	508	514	0	477	39	22	
15	0	0	0	0	508	527	0	476	39	22	
0	0	0	0	0	507	536	0	474	39	24	
1	0	0	0	0	509	550	0	487	39	26	
2	0	0	0	0	513	564	0	511	39	28	
3	0	0	0	0	514	584	0	517	39	29	
4	0	0	0	0	500	603	0	514	39	29	
5	0	0	0	0	503	617	0	516	39	26	
6	0	0	0	0	507	632	0	512	39	23	
7	0	0	0	0	510	651	0	511	39	22	
8	0	0	0	0	504	669	0	531	39	23	
9	0	0	0	0	501	684	0	538	39	25	
10	0	0	0	0	506	692	0	547	39	27	
11	0	0	0	0	510	699	0	557	39	29	
12	0	0	0	0	519	709	0	548	39	29	
13	0	0	0	0	509	724	0	536	39	27	
14	0	0	0	0	505	740	0	542	39	24	
15	0	0	0	0	512	750	0	539	39	22	
0	0	0	0	0	509	754	0	526	39	22	
1	0	0	0	0	510	756	0	512	39	24	
2	0	0	0	0	510	751	0	508	39	27	
3	0	0	0	0	504	744	0	498	39	28	
4	0	0	0	0	507	744	0	495	39	29	
5	0	0	0	0	511	745	0	489	39	28	
6	0	0	0	0	499	742	0	488	39	25	
7	0	0	0	0	512	734	0	489	39	22	
8	0	0	0	0	509	719	0	489	39	22	
9	0	0	0	0	509	701	0	508	39	24	
10	0	0	0	0	510	681	0	530	39	26	
11	0	0	0	0	509	663	0	535	39	28	
12	0	0	0	0	508	642	0	528	39	29	
13	0	0	0	0	506	621	0	517	39	29	
14	0	0	0	0	507	602	0	508	39	26	
15	0	0	0	0	512	582	0	512	39	23	
0	0	0	0	0	505	561	0	524	39	22	
1	0	0	0	0	509	543	0	520	39	23	
2	0	0	0	0	504	523	0	514	39	25	
3	0	0	0	0	509	500	0	516	39	27	
4	0	0	0	0	508	478	0	512	39	29	
5	0	0	0	0	505	459	0	506	39	29	
6	0	0	0	0	506	444	0	500	39	27	
7	0	0	0	0	505	434	0	496	39	24	
8	0	0	0	0	513	429	0	491	39	22	
9	0	0	0	0	510	428	0	489	39	22	
10	0	0	0	0	510	424	0	494	39	25	
11	0	0	0	0	515	423	0	518	39	27	
12	0	0	0	0	510	420	0	527	39	28	
13	0	0	0	0	506	415	0	524	39	29	
14	0	0	0	0	505	412	0	515	39	28	
15	0	0	0	0	512	414	0	508	39	25	
0	0	0	0	0	504	411	0	503	39	22	
1	0	0	0	0	504	410	0	518	39	22	
2	0	0	0	0	515	412	0	531	39	24	
3	0	0	0	0	503	412	0	526	39	26	
4	0	0	0	0	500	412	0	520	39	28	
5	0	0	0	0	509	412	0	512	39	29	
6	0	0	0	0	510	414	0	504	39	29	
7	0	0	0	0	512	415	0	497	39	26	
8	0	0	0	0	509	416	0	506	39	23	
9	0	0	0	0	503	418	0	523	39	22	
10	0	0	0	0	505	420	0	526	39	23	
11	0	0	0	0	511	422	0	521	39	25	
12	0	0	0	0	508	426	0	512	39	27	
13	0	0	0	0	508	431	0	504	39	29	
14	0	0	0	0	505	433	0	499	39	29	
15	0	0	0	0	511	433	0	495	39	27	
0	0	0	0	0	509	434	0	492	39	24	
1	0	0	0	0	504	437	0	506	39	22	
2	0	0	0	0	508	436	0	524	39	22	
3	0	0	0	0	510	436	0	526	39	25	
4	0	0	0	0	508	440	0	523	39	27	
5	0	0	0	0	505	445	0	526	39	28	
6	0	0	0	0	510	451	0	519	39	29	
7	0	0	0	0	506	454	0	522	39	28	
8	0	0	0	0	508	456	0	538	39	25	
9	0	0	0	0	503	455	0	539	39	22	
10	0	0	0	0	509	452	0	529	39	22	
11	0	0	0	0	507	448	0	516	39	24	
12	0	0	0	0	507	443	0	505	39	26	
13	0	0	0	0	509	445	0	499	39	28	
14	0	0	0	0	512	452	0	507	39	29	
15	0	0	0	0	513	459	0	486	39	28	
0	0	0	0	0	509	461	0	482	39	26	
1	0	0	0	0	505	462	0	492	39	23	
2	0	0	0	0	503	467	0	517	39	22	
3	0	0	0	0	502	472	0	523	39	23	
4	0	0	0	0	516	474	0	515	39	25	
5	0	0	0	0	508	469	0	504	39	27	
6	0	0	0	0	505	459	0	495	39	29	
7	0	0	0	0	506	455	0	497	39	29	
8	0	0	0	0	510	457	0	515	39	27	
9	0	0	0	0	507	462	0	521	39	24	
10	0	0	0	0	505	469	0	513	39	22	
11	0	0	0	0	507	475	0	504	39	22	
12	0	0	0	0	512	478	0	497	39	25	
13	0	0	0	0	504	483	0	491	39	27	
14	0	0	0	0	502	485	0	486	39	28	
15	0	0	0	0	508	478	0	481	39	29	
0	0	0	0	0	509	471	0	490	39	28	
1	0	0	0	0	503	465	0	508	39	25	
2	0	0	0	0	509	462	0	513	39	22	
3	0	0	0	0	515	467	0	509	39	22	
4	0	0	0	0	509	473	0	512	39	24	
5	0	0	0	0	511	472	0	507	39	26	
6	0	0	0	0	506	472	0	518	39	28	
7	0	0	0	0	508	478	0	495	39	29	
8	0	0	0	0	503	483	0	487	39	28	
9	0	0	0	0	510	483	0	483	39	26	
10	0	0	0	0	504	484	0	491	39	23	
11	0	0	0	0	510	481	0	515	39	22	
12	0	0	0	0	505	482	0	520	39	23	
13	0	0	0	0	508	470	0	514	39	25	
14	0	0	0	0	511	465	0	507	39	27	
15	0	0	0	0	510	471	0	497	39	29	
0	0	0	0	0	510	472	0	491	39	29	
1	0	0	0	0	508	477	0	489	39	27	
2	0	0	0	0	504	483	0	522	39	24	
3	0	0	0	0	509	485	0	521	39	22	
4	0	0	0	0	507	484	0	517	39	22	
5	0	0	0	0	510	480	0	508	39	25	
6	0	0	0	0	511	479	0	500	39	27	
7	0	0	0	0	508	480	0	491	39	28	
8	0	0	0	0	504	482	0	503	39	29	
9	0	0	0	0	509	486	0	515	39	28	
10	0	0	0	0	512	489	0	524	39	25	
11	0	0	0	0	505	491	0	505	39	22	
12	0	0	0	0	509	491	0	496	39	22	
13	0	0	0	0	506	491	0	484	39	24	
14	0	0	0	0	502	494	0	480	39	26	
15	0	0	0	0	510	495	0	473	39	28	
0	0	0	0	0	505	496	0	470	39	29	
1	0	0	0	0	508	496	0	467	39	28	
2	0	0	0	0	514	493	0	464	39	26	
3	0	0	0	0	509	493	0	476	39	23	
4	0	0	0	0	508	490	0	499	39	22	
5	0	0	0	0	508	489	0	505	39	23	
6	0	0	0	0	507	490	0	501	39	25	
7	0	0	0	0	508	491	0	508	39	27	
8	0	0	0	0	510	491	0	513	39	29	
9	0	0	0	0	507	496	0	504	39	29	
10	0	0	0	0	508	499	0	493	39	27	
11	0	0	0	0	507	500	0	483	39	24	
12	0	0	0	0	508	502	0	474	39	22	
13	0	0	0	0	504	505	0	468	39	22	
14	0	0	0	0	508	507	0	466	39	25	
15	0	0	0	0	514	509	0	464	39	27	
0	0	0	0	0	509	509	0	463	39	28	
1	0	0	0	0	504	509	0	479	39	29	
2	0	0	0	0	508	506	0	500	39	28	
3	0	0	0	0	503	506	0	502	39	25	
4	0	0	0	0	508	506	0	498	39	22	
5	0	0	0	0	511	507	0	499	39	22	
6	0	0	0	0	511	505	0	501	39	24	
7	0	0	0	0	504	503	0	507	39	26	
8	0	0	0	0	504	503	0	519	39	28	
9	0	0	0	0	508	504	0	515	39	29	
10	0	0	0	0	507	507	0	501	39	28	
11	0	0	0	0	509	507	0	486	39	26	
12	0	0	0	0	512	509	0	475	39	23	
13	0	0	0	0	500	511	0	467	39	22	
14	0	0	0	0	508	514	0	461	39	23	
15	0	0	0	0	508	515	0	457	39	25	
0	0	0	0	0	503	515	0	454	39	27	
1	0	0	0	0	505	515	0	463	39	29	
2	0	0	0	0	506	516	0	487	39	29	
3	0	0	0	0	504	513	0	494	39	27	
4	0	0	0	0	510	506	0	489	39	24	
5	0	0	0	0	508	504	0	482	39	22	
6	0	0	0	0	508	507	0	473	39	22	
7	0	0	0	0	507	511	0	475	39	25	
8	0	0	0	0	510	511	0	491	39	27	
9	0	0	0	0	507	511	0	495	39	28	
10	0	0	0	0	511	519	0	489	39	29	
11	0	0	0	0	524	522	0	482	39	28	
12	0	0	0	0	504	518	0	476	39	25	
13	0	0	0	0	510	511	0	472	39	22	
14	0	0	0	0	508	507	0	468	39	22	
15	0	0	0	0	506	505	0	465	39	24	
0	0	0	0	0	507	506	0	475	39	26	
1	0	0	0	0	508	514	0	491	39	28	
2	0	0	0	0	512	517	0	496	39	29	
3	0	0	0	0	507	526	0	513	39	28	
4	0	0	0	0	508	538	0	519	39	26	
5	0	0	0	0	503	530	0	512	39	23	
6	0	0	0	0	507	502	0	505	39	22	
7	0	0	0	0	504	485	0	519	39	23	
8	0	0	0	0	508	480	0	518	39	25	
9	0	0	0	0	508	478	0	506	39	27	
10	0	0	0	0	513	483	0	493	39	29	
11	0	0	0	0	511	487	0	481	39	29	
12	0	0	0	0	510	498	0	473	39	27	
13	0	0	0	0	509	513	0	464	39	24	
14	0	0	0	0	507	522	0	458	39	22	
15	0	0	0	0	504	527	0	455	39	22	
0	0	0	0	0	505	531	0	461	39	25	
1	0	0	0	0	509	532	0	482	39	27	
2	0	0	0	0	508	531	0	492	39	28	
3	0	0	0	0	508	532	0	487	39	29	
4	0	0	0	0	504	538	0	480	39	28	
5	0	0	0	0	508	541	0	473	39	25	
6	0	0	0	0	507	543	0	467	39	22	
7	0	0	0	0	505	545	0	459	39	22	
8	0	0	0	0	507	542	0	462	39	24	
9	0	0	0	0	508	541	0	444	39	26	
10	0	0	0	0	507	542	0	443	39	28	
11	0	0	0	0	500	542	0	444	39	29	
12	0	0	0	0	505	543	0	445	39	28	
13	0	0	0	0	508	543	0	445	39	26	
14	0	0	0	0	508	547	0	453	39	23	
15	0	0	0	0	508	551	0	445	39	22	
0	0	0	0	0	512	556	0	443	39	23	
1	0	0	0	0	515	559	0	440	39	25	
2	0	0	0	0	509	560	0	441	39	27	
3	0	0	0	0	510	557	0	444	39	29	
4	0	0	0	0	510	552	0	448	39	29	
5	0	0	0	0	519	551	0	450	39	27	
6	0	0	0	0	507	552	0	451	39	24	
7	0	0	0	0	503	557	0	450	39	22	
8	0	0	0	0	505	560	0	446	39	22	
9	0	0	0	0	505	560	0	445	39	25	
10	0	0	0	0	505	560	0	448	39	27	
11	0	0	0	0	512	559	0	452	39	28	
12	0	0	0	0	516	561	0	455	39	29	
13	0	0	0	0	506	566	0	457	39	28	
14	0	0	0	0	502	571	0	467	39	25	
15	0	0	0	0	514	570	0	492	39	22	
0	0	0	0	0	508	568	0	497	39	22	
1	0	0	0	0	506	568	0	492	39	24	
2	0	0	0	0	504	569	0	487	39	26	
3	0	0	0	0	504	572	0	489	39	28	
4	0	0	0	0	503	575	0	512	39	29	
5	0	0	0	0	507	577	0	521	39	28	
6	0	0	0	0	513	578	0	534	39	26	
7	0	0	0	0	513	576	0	542	39	23	
8	0	0	0	0	510	575	0	540	39	22	
9	0	0	0	0	505	573	0	551	39	23	
10	0	0	0	0	512	569	0	550	39	25	
11	0	0	0	0	509	566	0	553	39	27	
12	0	0	0	0	504	560	0	556	39	29	
13	0	0	0	0	503	557	0	544	39	29	
14	0	0	0	0	511	551	0	527	39	27	
15	0	0	0	0	503	555	0	512	39	24	
0	0	0	0	0	504	561	0	499	39	22	
1	0	0	0	0	507	574	0	490	39	22	
2	0	0	0	0	510	580	0	491	39	25	
3	0	0	0	0	510	578	0	511	39	27	
4	0	0	0	0	512	575	0	519	39	28	
5	0	0	0	0	513	574	0	513	39	29	
6	0	0	0	0	505	573	0	518	39	28	
7	0	0	0	0	509	570	0	535	39	25	
8	0	0	0	0	502	564	0	534	39	22	
9	0	0	0	0	501	559	0	523	39	22	
10	0	0	0	0	509	563	0	508	39	24	
11	0	0	0	0	507	571	0	495	39	26	
12	0	0	0	0	509	575	0	487	39	28	
13	0	0	0	0	505	572	0	482	39	29	
14	0	0	0	0	510	563	0	479	39	28	
15	0	0	0	0	508	559	0	476	39	26	
0	0	0	0	0	505	554	0	485	39	23	
1	0	0	0	0	509	549	0	503	39	22	
2	0	0	0	0	514	546	0	507	39	23	
3	0	0	0	0	514	543	0	503	39	25	
4	0	0	0	0	504	541	0	495	39	28	
5	0	0	0	0	506	540	0	488	39	29	
6	0	0	0	0	509	536	0	483	39	29	
7	0	0	0	0	508	532	0	480	39	27	
8	0	0	0	0	505	528	0	479	39	24	
9	0	0	0	0	506	526	0	495	39	22	
10	0	0	0	0	508	524	0	513	39	22	
11	0	0	0	0	510	520	0	516	39	25	
12	0	0	0	0	502	516	0	511	39	27	
13	0	0	0	0	510	510	0	500	39	29	
14	0	0	0	0	518	504	0	490	39	29	
15	0	0	0	0	511	500	0	495	39	28	
0	0	0	0	0	511	499	0	508	39	25	
1	0	0	0	0	507	495	0	508	39	22	
2	0	0	0	0	507	494	0	502	39	22	
3	0	0	0	0	507	494	0	505	39	24	
4	0	0	0	0	508	496	0	502	39	26	
5	0	0	0	0	505	498	0	496	39	28	
6	0	0	0	0	511	501	0	491	39	29	
7	0	0	0	0	505	501	0	485	39	28	
8	0	0	0	0	509	484	0	481	39	26	
9	0	0	0	0	501	465	0	480	39	23	
10	0	0	0	0	510	461	0	485	39	22	
11	0	0	0	0	509	455	0	509	39	23	
12	0	0	0	0	509	449	0	518	39	25	
13	0	0	0	0	504	446	0	514	39	28	
14	0	0	0	0	513	438	0	505	39	29	
15	0	0	0	0	508	434	0	498	39	29	
0	0	0	0	0	506	438	0	495	39	27	
1	0	0	0	0	509	444	0	512	39	24	
2	0	0	0	0	502	451	0	524	39	22	
3	0	0	0	0	510	458	0	521	39	22	
4	0	0	0	0	507	461	0	513	39	25	
5	0	0	0	0	508	459	0	505	39	27	
6	0	0	0	0	508	458	0	496	39	29	
7	0	0	0	0	510	454	0	489	39	29	
8	0	0	0	0	509	447	0	482	39	28	
9	0	0	0	0	508	448	0	473	39	25	
10	0	0	0	0	507	452	0	472	39	22	
11	0	0	0	0	518	452	0	495	39	22	
12	0	0	0	0	508	450	0	511	39	24	
13	0	0	0	0	507	448	0	523	39	26	
14	0	0	0	0	503	448	0	541	39	28	
15	0	0	0	0	509	447	0	538	39	29	
0	0	0	0	0	511	447	0	527	39	28	
1	0	0	0	0	510	448	0	524	39	26	
2	0	0	0	0	512	449	0	515	39	23	
3	0	0	0	0	512	447	0	506	39	22	
4	0	0	0	0	504	445	0	498	39	23	
5	0	0	0	0	503	447	0	493	39	25	
6	0	0	0	0	507	452	0	487	39	28	
7	0	0	0	0	507	457	0	484	39	29	
8	0	0	0	0	507	458	0	492	39	29	
9	0	0	0	0	509	457	0	487	39	27	
10	0	0	0	0	508	458	0	490	39	24	
11	0	0	0	0	504	458	0	485	39	22	
12	0	0	0	0	512	455	0	496	39	22	
13	0	0	0	0	510	454	0	524	39	25	
14	0	0	0	0	504	453	0	535	39	27	
15	0	0	0	0	505	453	0	552	39	29	
0	0	0	0	0	511	453	0	549	39	29	
1	0	0	0	0	511	452	0	534	39	28	
2	0	0	0	0	511	453	0	519	39	25	
3	0	0	0	0	511	455	0	507	39	22	
4	0	0	0	0	507	458	0	496	39	22	
5	0	0	0	0	512	459	0	488	39	24	
6	0	0	0	0	505	460	0	494	39	26	
7	0	0	0	0	512	459	0	500	39	28	
8	0	0	0	0	505	459	0	501	39	29	
9	0	0	0	0	504	461	0	522	39	28	
10	0	0	0	0	511	460	0	536	39	26	
11	0	0	0	0	508	460	0	531	39	23	
12	0	0	0	0	507	461	0	524	39	22	
13	0	0	0	0	505	463	0	514	39	23	
14	0	0	0	0	508	459	0	504	39	25	
15	0	0	0	0	512	454	0	496	39	28	
0	0	0	0	0	509	454	0	491	39	29	
1	0	0	0	0	508	456	0	488	39	29	
2	0	0	0	0	509	455	0	487	39	27	
3	0	0	0	0	506	460	0	508	39	24	
4	0	0	0	0	511	467	0	520	39	22	
5	0	0	0	0	511	472	0	517	39	22	
6	0	0	0	0	505	477	0	518	39	25	
7	0	0	0	0	510	479	0	535	39	27	
8	0	0	0	0	508	477	0	535	39	29	
9	0	0	0	0	511	479	0	524	39	29	
10	0	0	0	0	508	478	0	512	39	28	
11	0	0	0	0	509	474	0	502	39	25	
12	0	0	0	0	514	473	0	494	39	22	
13	0	0	0	0	508	470	0	488	39	22	
14	0	0	0	0	505	465	0	483	39	24	
15	0	0	0	0	510	467	0	482	39	26	
0	0	0	0	0	516	469	0	486	39	28	
1	0	0	0	0	508	473	0	506	39	29	
2	0	0	0	0	500	476	0	513	39	28	
3	0	0	0	0	507	481	0	510	39	26	
4	0	0	0	0	511	488	0	511	39	23	
5	0	0	0	0	504	485	0	511	39	22	
6	0	0	0	0	505	474	0	505	39	23	
7	0	0	0	0	511	462	0	498	39	26	
8	0	0	0	0	507	459	0	490	39	28	
9	0	0	0	0	510	474	0	497	39	29	
10	0	0	0	0	504	485	0	518	39	29	
11	0	0	0	0	509	478	0	541	39	27	
12	0	0	0	0	511	465	0	522	39	24	
13	0	0	0	0	507	457	0	514	39	22	
14	0	0	0	0	508	455	0	507	39	22	
15	0	0	0	0	505	458	0	495	39	25	
0	0	0	0	0	503	465	0	492	39	27	
1	0	0	0	0	512	466	0	509	39	29	
2	0	0	0	0	513	457	0	522	39	29	
3	0	0	0	0	513	452	0	519	39	28	
4	0	0	0	0	501	454	0	513	39	25	
5	0	0	0	0	509	458	0	504	39	22	
6	0	0	0	0	511	462	0	495	39	22	
7	0	0	0	0	509	463	0	487	39	24	
8	0	0	0	0	505	465	0	492	39	26	
9	0	0	0	0	510	467	0	508	39	28	
10	0	0	0	0	511	469	0	511	39	29	
11	0	0	0	0	505	474	0	505	39	28	
12	0	0	0	0	500	478	0	498	39	26	
13	0	0	0	0	512	481	0	492	39	23	
14	0	0	0	0	501	483	0	487	39	22	
15	0	0	0	0	507	483	0	486	39	23	
0	0	0	0	0	511	486	0	483	39	25	
1	0	0	0	0	511	483	0	500	39	28	
2	0	0	0	0	504	480	0	521	39	29	
3	0	0	0	0	512	482	0	522	39	29	
4	0	0	0	0	508	485	0	519	39	27	
5	0	0	0	0	511	484	0	519	39	24	
6	0	0	0	0	504	481	0	510	39	22	
7	0	0	0	0	511	483	0	513	39	22	
8	0	0	0	0	511	485	0	528	39	25	
9	0	0	0	0	504	485	0	527	39	27	
10	0	0	0	0	507	486	0	515	39	29	
11	0	0	0	0	511	484	0	502	39	29	
12	0	0	0	0	504	486	0	489	39	28	
13	0	0	0	0	509	488	0	482	39	25	
14	0	0	0	0	500	491	0	476	39	22	
15	0	0	0	0	508	492	0	471	39	22	
0	0	0	0	0	511	493	0	469	39	24	
1	0	0	0	0	513	495	0	479	39	26	
2	0	0	0	0	508	493	0	501	39	28	
3	0	0	0	0	504	488	0	505	39	29	
4	0	0	0	0	504	491	0	498	39	28	
5	0	0	0	0	513	494	0	488	39	26	
6	0	0	0	0	510	499	0	481	39	23	
7	0	0	0	0	513	500	0	481	39	22	
8	0	0	0	0	507	502	0	498	39	23	
9	0	0	0	0	507	505	0	504	39	26	
10	0	0	0	0	507	508	0	497	39	28	
11	0	0	0	0	507	506	0	493	39	29	
12	0	0	0	0	503	501	0	483	39	29	
13	0	0	0	0	508	497	0	488	39	27	
14	0	0	0	0	512	497	0	473	39	24	
15	0	0	0	0	508	498	0	469	39	22	
0	0	0	0	0	510	500	0	476	39	22	
1	0	0	0	0	511	501	0	493	39	25	
2	0	0	0	0	508	501	0	496	39	27	
3	0	0	0	0	508	503	0	493	39	29	
4	0	0	0	0	506	506	0	497	39	29	
5	0	0	0	0	507	508	0	496	39	28	
6	0	0	0	0	503	508	0	489	39	25	
7	0	0	0	0	506	507	0	483	39	22	
8	0	0	0	0	502	502	0	478	39	22	
9	0	0	0	0	512	499	0	479	39	24	
10	0	0	0	0	507	499	0	483	39	26	
11	0	0	0	0	506	502	0	516	39	28	
12	0	0	0	0	509	504	0	508	39	29	
13	0	0	0	0	507	505	0	504	39	28	
14	0	0	0	0	508	506	0	492	39	26	
15	0	0	0	0	508	506	0	484	39	23	
0	0	0	0	0	508	504	0	485	39	22	
1	0	0	0	0	509	505	0	504	39	23	
2	0	0	0	0	515	504	0	510	39	25	
3	0	0	0	0	511	503	0	505	39	28	
4	0	0	0	0	510	504	0	497	39	29	
5	0	0	0	0	508	503	0	487	39	29	
6	0	0	0	0	508	500	0	481	39	27	
7	0	0	0	0	505	503	0	477	39	24	
8	0	0	0	0	499	507	0	490	39	22	
9	0	0	0	0	508	508	0	502	39	22	
10	0	0	0	0	507	509	0	502	39	25	
11	0	0	0	0	509	509	0	497	39	27	
12	0	0	0	0	508	511	0	491	39	29	
13	0	0	0	0	504	511	0	483	39	29	
14	0	0	0	0	504	510	0	479	39	28	
15	0	0	0	0	511	511	0	477	39	25	
0	0	0	0	0	507	511	0	478	39	22	
1	0	0	0	0	512	511	0	496	39	22	
2	0	0	0	0	510	511	0	511	39	24	
3	0	0	0	0	508	510	0	523	39	26	
4	0	0	0	0	507	509	0	542	39	28	
5	0	0	0	0	511	508	0	542	39	29	
6	0	0	0	0	509	507	0	551	39	28	
7	0	0	0	0	513	508	0	545	39	26	
8	0	0	0	0	505	511	0	537	39	23	
9	0	0	0	0	506	514	0	527	39	22	
10	0	0	0	0	505	515	0	515	39	23	
11	0	0	0	0	508	519	0	504	39	26	
12	0	0	0	0	512	519	0	493	39	28	
13	0	0	0	0	507	520	0	486	39	29	
14	0	0	0	0	506	520	0	482	39	29	
15	0	0	0	0	508	515	0	480	39	27	
0	0	0	0	0	509	502	0	478	39	24	
1	0	0	0	0	506	489	0	476	39	22	
2	0	0	0	0	495	474	0	475	39	22	
3	0	0	0	0	509	466	0	481	39	25	
4	0	0	0	0	514	477	0	507	39	27	
5	0	0	0	0	514	487	0	520	39	29	
6	0	0	0	0	508	487	0	535	39	29	
7	0	0	0	0	501	490	0	542	39	28	
8	0	0	0	0	506	495	0	531	39	25	
9	0	0	0	0	504	496	0	517	39	22	
10	0	0	0	0	504	498	0	504	39	22	
11	0	0	0	0	504	497	0	493	39	24	
12	0	0	0	0	509	499	0	486	39	26	
13	0	0	0	0	508	502	0	483	39	28	
14	0	0	0	0	509	500	0	480	39	29	
15	0	0	0	0	508	500	0	478	39	28	
0	0	0	0	0	504	501	0	476	39	26	
1	0	0	0	0	511	503	0	489	39	23	
2	0	0	0	0	510	503	0	513	39	22	
3	0	0	0	0	510	501	0	523	39	23	
4	0	0	0	0	509	502	0	520	39	25	
5	0	0	0	0	507	504	0	522	39	28	
6	0	0	0	0	508	500	0	517	39	29	
7	0	0	0	0	507	500	0	517	39	29	
8	0	0	0	0	513	502	0	536	39	27	
9	0	0	0	0	511	508	0	540	39	24	
10	0	0	0	0	510	513	0	532	39	22	
11	0	0	0	0	503	513	0	520	39	22	
12	0	0	0	0	508	510	0	510	39	25	
13	0	0	0	0	504	508	0	502	39	27	
14	0	0	0	0	509	513	0	508	39	29	
15	0	0	0	0	508	516	0	507	39	29	
0	0	0	0	0	507	519	0	503	39	28	
1	0	0	0	0	512	523	0	518	39	25	
2	0	0	0	0	504	521	0	524	39	22	
3	0	0	0	0	505	512	0	522	39	22	
4	0	0	0	0	512	504	0	511	39	24	
5	0	0	0	0	509	505	0	515	39	26	
6	0	0	0	0	510	507	0	502	39	28	
7	0	0	0	0	506	504	0	500	39	29	
8	0	0	0	0	507	502	0	498	39	28	
9	0	0	0	0	513	502	0	531	39	26	
10	0	0	0	0	505	506	0	535	39	23	
11	0	0	0	0	504	508	0	537	39	22	
12	0	0	0	0	511	509	0	527	39	23	
13	0	0	0	0	510	506	0	517	39	25	
14	0	0	0	0	505	504	0	507	39	28	
15	0	0	0	0	507	506	0	513	39	29	
0	0	0	0	0	506	509	0	527	39	29	
1	0	0	0	0	502	512	0	544	39	27	
2	0	0	0	0	506	514	0	555	39	24	
3	0	0	0	0	510	513	0	569	39	22	
4	0	0	0	0	514	512	0	544	39	22	
5	0	0	0	0	512	511	0	539	39	25	
6	0	0	0	0	503	510	0	536	39	27	
7	0	0	0	0	502	511	0	527	39	29	
8	0	0	0	0	509	510	0	536	39	29	
9	0	0	0	0	506	512	0	551	39	28	
10	0	0	0	0	507	516	0	547	39	25	
11	0	0	0	0	509	519	0	537	39	22	
12	0	0	0	0	510	519	0	527	39	22	
13	0	0	0	0	512	519	0	517	39	24	
14	0	0	0	0	509	519	0	510	39	26	
15	0	0	0	0	509	510	0	507	39	28	
0	0	0	0	0	504	506	0	506	39	29	
1	0	0	0	0	508	505	0	525	39	28	
2	0	0	0	0	512	502	0	540	39	26	
3	0	0	0	0	511	504	0	539	39	23	
4	0	0	0	0	502	509	0	532	39	22	
5	0	0	0	0	506	512	0	524	39	23	
6	0	0	0	0	509	511	0	516	39	25	
7	0	0	0	0	513	509	0	509	39	28	
8	0	0	0	0	509	505	0	515	39	29	
9	0	0	0	0	499	506	0	533	39	29	
10	0	0	0	0	508	513	0	532	39	27	
11	0	0	0	0	512	513	0	541	39	24	
12	0	0	0	0	508	513	0	520	39	22	
13	0	0	0	0	508	519	0	512	39	22	
14	0	0	0	0	508	523	0	507	39	25	
15	0	0	0	0	504	525	0	505	39	27	
0	0	0	0	0	506	529	0	501	39	29	
1	0	0	0	0	507	529	0	497	39	29	
2	0	0	0	0	508	527	0	507	39	28	
3	0	0	0	0	509	526	0	531	39	25	
4	0	0	0	0	512	526	0	536	39	22	
5	0	0	0	0	506	527	0	532	39	22	
6	0	0	0	0	502	529	0	541	39	24	
7	0	0	0	0	506	529	0	551	39	26	
8	0	0	0	0	507	526	0	546	39	28	
9	0	0	0	0	509	524	0	535	39	29	
10	0	0	0	0	507	522	0	523	39	28	
11	0	0	0	0	511	526	0	511	39	26	
12	0	0	0	0	503	534	0	503	39	23	
13	0	0	0	0	505	534	0	498	39	22	
14	0	0	0	0	504	532	0	497	39	23	
15	0	0	0	0	510	530	0	495	39	25	
0	0	0	0	0	511	528	0	504	39	28	
1	0	0	0	0	507	528	0	519	39	29	
2	0	0	0	0	514	525	0	536	39	29	
3	0	0	0	0	510	523	0	551	39	27	
4	0	0	0	0	507	524	0	565	39	24	
5	0	0	0	0	508	525	0	559	39	22	
6	0	0	0	0	504	524	0	544	39	22	
7	0	0	0	0	515	524	0	530	39	25	
8	0	0	0	0	511	525	0	518	39	27	
9	0	0	0	0	506	523	0	507	39	28	
10	0	0	0	0	504	521	0	499	39	29	
11	0	0	0	0	504	524	0	494	39	28	
12	0	0	0	0	514	527	0	492	39	25	
13	0	0	0	0	505	527	0	492	39	22	
14	0	0	0	0	509	527	0	515	39	22	
15	0	0	0	0	507	530	0	528	39	24	
0	0	0	0	0	513	533	0	540	39	26	
1	0	0	0	0	502	524	0	554	39	28	
2	0	0	0	0	507	516	0	550	39	29	
3	0	0	0	0	510	516	0	536	39	28	
4	0	0	0	0	513	519	0	520	39	26	
5	0	0	0	0	506	517	0	516	39	23	
6	0	0	0	0	510	510	0	512	39	22	
7	0	0	0	0	509	510	0	507	39	23	
8	0	0	0	0	505	510	0	523	39	25	
9	0	0	0	0	509	510	0	532	39	28	
10	0	0	0	0	506	508	0	527	39	29	
11	0	0	0	0	506	498	0	518	39	29	
12	0	0	0	0	505	492	0	509	39	27	
13	0	0	0	0	517	496	0	500	39	24	
14	0	0	0	0	506	504	0	492	39	22	
15	0	0	0	0	511	508	0	487	39	22	
0	0	0	0	0	503	509	0	496	39	25	
1	0	0	0	0	509	506	0	485	39	27	
2	0	0	0	0	507	502	0	505	39	28	
3	0	0	0	0	512	503	0	518	39	29	
4	0	0	0	0	505	505	0	516	39	28	
5	0	0	0	0	508	501	0	507	39	25	
6	0	0	0	0	507	495	0	499	39	22	
7	0	0	0	0	509	493	0	492	39	22	
8	0	0	0	0	507	496	0	500	39	24	
9	0	0	0	0	510	501	0	511	39	26	
10	0	0	0	0	501	504	0	509	39	28	
11	0	0	0	0	508	506	0	503	39	29	
12	0	0	0	0	508	503	0	494	39	28	
13	0	0	0	0	504	502	0	486	39	26	
14	0	0	0	0	504	505	0	481	39	23	
15	0	0	0	0	512	508	0	478	39	22	
0	0	0	0	0	510	511	0	477	39	23	
1	0	0	0	0	511	515	0	497	39	25	
2	0	0	0	0	507	510	0	512	39	28	
3	0	0	0	0	508	507	0	511	39	29	
4	0	0	0	0	510	506	0	510	39	29	
5	0	0	0	0	514	505	0	509	39	27	
6	0	0	0	0	505	490	0	502	39	24	
7	0	0	0	0	516	476	0	492	39	22	
8	0	0	0	0	509	480	0	482	39	22	
9	0	0	0	0	504	487	0	483	39	25	
10	0	0	0	0	508	487	0	504	39	27	
11	0	0	0	0	509	491	0	510	39	28	
12	0	0	0	0	507	495	0	504	39	29	
13	0	0	0	0	503	494	0	495	39	28	
14	0	0	0	0	515	492	0	485	39	25	
15	0	0	0	0	510	492	0	480	39	22	
0	0	0	0	0	508	496	0	494	39	22	
1	0	0	0	0	510	501	0	502	39	24	
2	0	0	0	0	508	504	0	499	39	26	
3	0	0	0	0	508	505	0	491	39	28	
4	0	0	0	0	500	508	0	483	39	29	
5	0	0	0	0	508	510	0	477	39	28	
6	0	0	0	0	511	508	0	471	39	26	
7	0	0	0	0	508	505	0	467	39	23	
8	0	0	0	0	509	503	0	470	39	22	
9	0	0	0	0	507	503	0	488	39	23	
10	0	0	0	0	512	500	0	496	39	25	
11	0	0	0	0	511	499	0	512	39	27	
12	0	0	0	0	512	502	0	524	39	29	
13	0	0	0	0	507	502	0	525	39	29	
14	0	0	0	0	507	503	0	536	39	27	
15	0	0	0	0	502	505	0	529	39	24	
0	0	0	0	0	506	510	0	528	39	22	
1	0	0	0	0	504	516	0	526	39	22	
2	0	0	0	0	508	523	0	515	39	25	
3	0	0	0	0	508	520	0	504	39	27	
4	0	0	0	0	508	507	0	507	39	28	
5	0	0	0	0	509	496	0	510	39	29	
6	0	0	0	0	512	491	0	502	39	28	
7	0	0	0	0	507	493	0	495	39	25	
8	0	0	0	0	508	500	0	487	39	22	
9	0	0	0	0	507	511	0	481	39	22	
10	0	0	0	0	511	522	0	495	39	24	
11	0	0	0	0	510	535	0	515	39	26	
12	0	0	0	0	507	547	0	521	39	28	
13	0	0	0	0	513	560	0	539	39	29	
14	0	0	0	0	510	572	0	540	39	28	
15	0	0	0	0	504	586	0	547	39	26	
0	0	0	0	0	503	600	0	547	39	23	
1	0	0	0	0	506	614	0	531	39	22	
2	0	0	0	0	509	628	0	515	39	23	
3	0	0	0	0	506	644	0	499	39	26	
4	0	0	0	0	516	661	0	487	39	28	
5	0	0	0	0	511	678	0	478	39	29	
6	0	0	0	0	507	691	0	475	39	29	
7	0	0	0	0	507	703	0	472	39	27	
8	0	0	0	0	506	715	0	471	39	24	
9	0	0	0	0	510	726	0	487	39	22	
10	0	0	0	0	502	738	0	510	39	22	
11	0	0	0	0	507	747	0	516	39	25	
12	0	0	0	0	510	750	0	511	39	27	
13	0	0	0	0	513	739	0	503	39	28	
14	0	0	0	0	513	734	0	493	39	29	
15	0	0	0	0	512	738	0	497	39	28	
0	0	0	0	0	507	745	0	510	39	25	
1	0	0	0	0	505	752	0	507	39	22	
2	0	0	0	0	506	756	0	500	39	22	
3	0	0	0	0	505	751	0	504	39	24	
4	0	0	0	0	504	739	0	502	39	26	
5	0	0	0	0	511	723	0	497	39	28	
6	0	0	0	0	508	708	0	493	39	29	
7	0	0	0	0	508	691	0	487	39	28	
8	0	0	0	0	510	668	0	484	39	26	
9	0	0	0	0	509	646	0	481	39	23	
10	0	0	0	0	505	627	0	486	39	22	
11	0	0	0	0	511	610	0	510	39	23	
12	0	0	0	0	504	591	0	531	39	25	
13	0	0	0	0	505	573	0	516	39	28	
14	0	0	0	0	513	550	0	509	39	29	
15	0	0	0	0	509	525	0	503	39	29	
0	0	0	0	0	506	500	0	500	39	27	
1	0	0	0	0	507	478	0	519	39	24	
2	0	0	0	0	505	462	0	534	39	22	
3	0	0	0	0	508	455	0	533	39	22	
4	0	0	0	0	510	447	0	527	39	25	
5	0	0	0	0	511	444	0	519	39	27	
6	0	0	0	0	507	441	0	511	39	29	
7	0	0	0	0	510	436	0	504	39	29	
8	0	0	0	0	505	430	0	512	39	28	
9	0	0	0	0	510	424	0	529	39	25	
10	0	0	0	0	512	423	0	534	39	22	
11	0	0	0	0	503	424	0	529	39	22	
12	0	0	0	0	505	427	0	522	39	24	
13	0	0	0	0	509	429	0	517	39	26	
14	0	0	0	0	511	430	0	512	39	28	
15	0	0	0	0	503	429	0	510	39	29	
0	0	0	0	0	504	423	0	509	39	28	
1	0	0	0	0	512	416	0	524	39	26	
2	0	0	0	0	510	409	0	544	39	23	
3	0	0	0	0	506	407	0	549	39	22	
4	0	0	0	0	505	416	0	546	39	23	
5	0	0	0	0	513	428	0	564	39	26	
6	0	0	0	0	508	437	0	541	39	28	
7	0	0	0	0	511	435	0	544	39	29	
8	0	0	0	0	511	417	0	560	39	29	
9	0	0	0	0	512	422	0	559	39	27	
10	0	0	0	0	499	432	0	547	39	24	
11	0	0	0	0	503	434	0	534	39	22	
12	0	0	0	0	511	430	0	521	39	22	
13	0	0	0	0	514	430	0	513	39	25	
14	0	0	0	0	507	432	0	508	39	27	
15	0	0	0	0	508	437	0	517	39	29	
0	0	0	0	0	515	441	0	500	39	29	
1	0	0	0	0	507	446	0	501	39	28	
2	0	0	0	0	512	447	0	502	39	25	
3	0	0	0	0	508	443	0	529	39	22	
4	0	0	0	0	505	443	0	542	39	22	
5	0	0	0	0	507	446	0	557	39	24	
6	0	0	0	0	503	448	0	568	39	26	
7	0	0	0	0	507	451	0	558	39	28	
8	0	0	0	0	510	457	0	543	39	29	
9	0	0	0	0	506	459	0	528	39	28	
10	0	0	0	0	510	464	0	515	39	26	
11	0	0	0	0	507	468	0	508	39	23	
12	0	0	0	0	506	464	0	505	39	22	
13	0	0	0	0	512	460	0	504	39	23	
14	0	0	0	0	508	458	0	503	39	26	
15	0	0	0	0	514	460	0	502	39	28	
0	0	0	0	0	511	464	0	513	39	29	
1	0	0	0	0	506	466	0	534	39	29	
2	0	0	0	0	511	468	0	540	39	27	
3	0	0	0	0	507	470	0	536	39	24	
4	0	0	0	0	507	471	0	538	39	22	
5	0	0	0	0	508	474	0	533	39	22	
6	0	0	0	0	506	475	0	526	39	25	
7	0	0	0	0	500	479	0	519	39	27	
8	0	0	0	0	509	482	0	511	39	29	
9	0	0	0	0	508	483	0	505	39	29	
10	0	0	0	0	510	487	0	513	39	28	
11	0	0	0	0	508	487	0	535	39	25	
12	0	0	0	0	507	485	0	540	39	22	
13	0	0	0	0	503	485	0	532	39	22	
14	0	0	0	0	511	485	0	522	39	24	
15	0	0	0	0	504	485	0	512	39	26	
0	0	0	0	0	509	489	0	522	39	28	
1	0	0	0	0	511	492	0	509	39	29	
2	0	0	0	0	508	489	0	522	39	28	
3	0	0	0	0	511	494	0	537	39	26	
4	0	0	0	0	502	499	0	535	39	23	
5	0	0	0	0	508	497	0	527	39	22	
6	0	0	0	0	505	493	0	518	39	23	
7	0	0	0	0	510	493	0	512	39	26	
8	0	0	0	0	507	493	0	523	39	28	
9	0	0	0	0	509	493	0	533	39	29	
10	0	0	0	0	513	494	0	531	39	29	
11	0	0	0	0	514	494	0	542	39	27	
12	0	0	0	0	510	493	0	518	39	24	
13	0	0	0	0	502	494	0	510	39	22	
14	0	0	0	0	505	493	0	505	39	23	
15	0	0	0	0	507	488	0	503	39	25	
0	0	0	0	0	515	487	0	503	39	27	
1	0	0	0	0	505	492	0	521	39	29	
2	0	0	0	0	505	496	0	535	39	29	
3	0	0	0	0	508	499	0	534	39	28	
4	0	0	0	0	513	501	0	534	39	25	
5	0	0	0	0	503	503	0	532	39	22	
6	0	0	0	0	502	506	0	525	39	22	
7	0	0	0	0	504	506	0	534	39	24	
8	0	0	0	0	511	500	0	544	39	26	
9	0	0	0	0	509	500	0	540	39	28	
10	0	0	0	0	507	504	0	530	39	29	
11	0	0	0	0	514	507	0	516	39	28	
12	0	0	0	0	504	504	0	505	39	26	
13	0	0	0	0	504	496	0	497	39	23	
14	0	0	0	0	513	496	0	494	39	22	
15	0	0	0	0	502	500	0	492	39	23	
0	0	0	0	0	508	501	0	489	39	26	
1	0	0	0	0	512	505	0	505	39	28	
2	0	0	0	0	510	513	0	528	39	29	
3	0	0	0	0	514	508	0	533	39	29	
4	0	0	0	0	503	485	0	527	39	27	
5	0	0	0	0	510	478	0	516	39	24	
6	0	0	0	0	510	487	0	505	39	22	
7	0	0	0	0	504	492	0	508	39	23	
8	0	0	0	0	504	494	0	520	39	25	
9	0	0	0	0	505	497	0	517	39	27	
10	0	0	0	0	508	501	0	509	39	29	
11	0	0	0	0	506	504	0	499	39	29	
12	0	0	0	0	510	507	0	492	39	28	
13	0	0	0	0	513	510	0	488	39	25	
14	0	0	0	0	511	506	0	486	39	22	
15	0	0	0	0	521	503	0	485	39	22	
0	0	0	0	0	512	505	0	484	39	24	
1	0	0	0	0	508	508	0	496	39	26	
2	0	0	0	0	501	508	0	520	39	28	
3	0	0	0	0	510	509	0	526	39	29	
4	0	0	0	0	511	513	0	519	39	28	
5	0	0	0	0	508	515	0	518	39	26	
6	0	0	0	0	515	517	0	511	39	23	
7	0	0	0	0	509	519	0	508	39	22	
8	0	0	0	0	502	523	0	527	39	23	
9	0	0	0	0	504	526	0	531	39	26	
10	0	0	0	0	504	524	0	520	39	28	
11	0	0	0	0	502	515	0	507	39	29	
12	0	0	0	0	502	509	0	494	39	29	
13	0	0	0	0	512	509	0	484	39	27	
14	0	0	0	0	508	511	0	478	39	24	
15	0	0	0	0	510	515	0	473	39	22	
0	0	0	0	0	511	519	0	481	39	23	
1	0	0	0	0	510	520	0	497	39	25	
2	0	0	0	0	505	520	0	499	39	27	
3	0	0	0	0	508	521	0	495	39	29	
4	0	0	0	0	506	523	0	486	39	29	
5	0	0	0	0	505	524	0	479	39	28	
6	0	0	0	0	510	525	0	474	39	25	
7	0	0	0	0	514	527	0	470	39	22	
8	0	0	0	0	510	530	0	468	39	22	
9	0	0	0	0	502	533	0	481	39	24	
10	0	0	0	0	507	532	0	499	39	26	
11	0	0	0	0	506	532	0	500	39	28	
12	0	0	0	0	514	531	0	493	39	29	
13	0	0	0	0	508	529	0	484	39	28	
14	0	0	0	0	502	532	0	476	39	26	
15	0	0	0	0	513	537	0	480	39	23	
0	0	0	0	0	509	532	0	494	39	22	
1	0	0	0	0	504	525	0	511	39	23	
2	0	0	0	0	509	526	0	489	39	26	
3	0	0	0	0	508	532	0	492	39	28	
4	0	0	0	0	508	536	0	491	39	29	
5	0	0	0	0	510	541	0	486	39	29	
6	0	0	0	0	511	543	0	481	39	27	
7	0	0	0	0	506	545	0	476	39	24	
8	0	0	0	0	505	547	0	471	39	22	
9	0	0	0	0	507	549	0	467	39	23	
10	0	0	0	0	502	546	0	465	39	25	
11	0	0	0	0	508	542	0	464	39	27	
12	0	0	0	0	509	542	0	464	39	29	
13	0	0	0	0	510	545	0	463	39	29	
14	0	0	0	0	510	550	0	461	39	28	
15	0	0	0	0	508	557	0	459	39	25	
0	0	0	0	0	504	561	0	454	39	22	
1	0	0	0	0	505	563	0	448	39	22	
2	0	0	0	0	510	564	0	447	39	24	
3	0	0	0	0	506	567	0	447	39	26	
4	0	0	0	0	518	572	0	448	39	28	
5	0	0	0	0	506	576	0	452	39	29	
6	0	0	0	0	504	567	0	453	39	28	
7	0	0	0	0	503	546	0	451	39	26	
8	0	0	0	0	511	535	0	448	39	23	
9	0	0	0	0	510	529	0	446	39	22	
10	0	0	0	0	511	529	0	446	39	23	
11	0	0	0	0	511	527	0	448	39	26	
12	0	0	0	0	509	532	0	450	39	28	
13	0	0	0	0	503	540	0	451	39	29	
14	0	0	0	0	505	547	0	460	39	29	
15	0	0	0	0	509	547	0	483	39	27	
0	0	0	0	0	515	549	0	492	39	24	
1	0	0	0	0	507	547	0	488	39	22	
2	0	0	0	0	512	552	0	481	39	23	
3	0	0	0	0	508	562	0	481	39	25	
4	0	0	0	0	511	571	0	500	39	27	
5	0	0	0	0	503	572	0	506	39	29	
6	0	0	0	0	496	565	0	518	39	29	
7	0	0	0	0	512	555	0	527	39	28	
8	0	0	0	0	514	561	0	523	39	25	
9	0	0	0	0	505	572	0	535	39	23	
10	0	0	0	0	503	574	0	535	39	22	
11	0	0	0	0	510	566	0	539	39	24	
12	0	0	0	0	504	552	0	542	39	26	
13	0	0	0	0	512	551	0	538	39	28	
14	0	0	0	0	505	557	0	534	39	29	
15	0	0	0	0	504	566	0	544	39	28	
0	0	0	0	0	515	572	0	543	39	26	
1	0	0	0	0	516	569	0	532	39	23	
2	0	0	0	0	510	560	0	518	39	22	
3	0	0	0	0	503	558	0	502	39	23	
4	0	0	0	0	504	561	0	491	39	26	
5	0	0	0	0	504	562	0	484	39	28	
6	0	0	0	0	509	561	0	480	39	29	
7	0	0	0	0	510	564	0	491	39	29	
8	0	0	0	0	511	566	0	480	39	27	
9	0	0	0	0	507	569	0	501	39	24	
10	0	0	0	0	504	572	0	519	39	22	
11	0	0	0	0	505	574	0	521	39	23	
12	0	0	0	0	512	579	0	514	39	25	
13	0	0	0	0	511	580	0	505	39	27	
14	0	0	0	0	508	580	0	497	39	29	
15	0	0	0	0	508	582	0	491	39	29	
0	0	0	0	0	508	583	0	498	39	28	
1	0	0	0	0	516	582	0	515	39	25	
2	0	0	0	0	507	578	0	518	39	23	
3	0	0	0	0	503	578	0	515	39	22	
4	0	0	0	0	503	577	0	519	39	24	
5	0	0	0	0	512	575	0	518	39	27	
6	0	0	0	0	510	570	0	513	39	28	
7	0	0	0	0	510	568	0	508	39	29	
8	0	0	0	0	505	568	0	503	39	29	
9	0	0	0	0	508	569	0	497	39	26	
10	0	0	0	0	504	570	0	505	39	23	
11	0	0	0	0	508	566	0	529	39	22	
12	0	0	0	0	507	562	0	536	39	23	
13	0	0	0	0	510	562	0	529	39	26	
14	0	0	0	0	510	566	0	519	39	28	
15	0	0	0	0	507	567	0	511	39	29	
0	0	0	0	0	500	567	0	510	39	29	
1	0	0	0	0	509	562	0	526	39	27	
2	0	0	0	0	511	551	0	530	39	24	
3	0	0	0	0	511	543	0	524	39	22	
4	0	0	0	0	505	533	0	515	39	23	
5	0	0	0	0	507	527	0	506	39	25	
6	0	0	0	0	511	525	0	499	39	27	
7	0	0	0	0	507	524	0	495	39	29	
8	0	0	0	0	507	524	0	507	39	29	
9	0	0	0	0	515	526	0	521	39	28	
10	0	0	0	0	508	525	0	521	39	25	
11	0	0	0	0	503	522	0	514	39	23	
12	0	0	0	0	502	519	0	506	39	22	
13	0	0	0	0	509	516	0	499	39	24	
14	0	0	0	0	504	510	0	494	39	27	
15	0	0	0	0	504	499	0	490	39	28	
0	0	0	0	0	510	487	0	484	39	29	
1	0	0	0	0	510	488	0	479	39	29	
2	0	0	0	0	514	491	0	477	39	26	
3	0	0	0	0	504	492	0	479	39	23	
4	0	0	0	0	505	497	0	481	39	22	
5	0	0	0	0	514	499	0	484	39	23	
6	0	0	0	0	515	499	0	484	39	26	
7	0	0	0	0	508	489	0	483	39	28	
8	0	0	0	0	510	472	0	478	39	29	
9	0	0	0	0	507	463	0	475	39	29	
10	0	0	0	0	504	464	0	476	39	27	
11	0	0	0	0	511	461	0	479	39	24	
12	0	0	0	0	508	463	0	481	39	22	
13	0	0	0	0	509	464	0	483	39	23	
14	0	0	0	0	508	465	0	486	39	25	
15	0	0	0	0	508	468	0	485	39	27	
0	0	0	0	0	508	464	0	482	39	29	
1	0	0	0	0	512	462	0	499	39	29	
2	0	0	0	0	505	464	0	522	39	28	
3	0	0	0	0	506	470	0	528	39	25	
4	0	0	0	0	511	471	0	523	39	23	
5	0	0	0	0	512	467	0	514	39	22	
6	0	0	0	0	509	460	0	504	39	24	
7	0	0	0	0	502	454	0	496	39	27	
8	0	0	0	0	503	453	0	486	39	28	
9	0	0	0	0	514	455	0	482	39	29	
10	0	0	0	0	505	456	0	505	39	29	
11	0	0	0	0	501	459	0	521	39	26	
12	0	0	0	0	509	460	0	535	39	23	
13	0	0	0	0	510	463	0	556	39	22	
14	0	0	0	0	505	468	0	557	39	23	
15	0	0	0	0	512	467	0	546	39	26	
0	0	0	0	0	508	464	0	548	39	28	
1	0	0	0	0	509	460	0	554	39	29	
2	0	0	0	0	505	456	0	552	39	29	
3	0	0	0	0	504	459	0	563	39	27	
4	0	0	0	0	506	464	0	558	39	24	
5	0	0	0	0	503	464	0	561	39	22	
6	0	0	0	0	505	463	0	564	39	23	
7	0	0	0	0	509	462	0	556	39	25	
8	0	0	0	0	505	463	0	562	39	27	
9	0	0	0	0	512	464	0	556	39	29	
10	0	0	0	0	508	465	0	550	39	29	
11	0	0	0	0	508	465	0	544	39	28	
12	0	0	0	0	513	465	0	534	39	25	
13	0	0	0	0	510	467	0	522	39	23	
14	0	0	0	0	504	469	0	508	39	22	
15	0	0	0	0	510	470	0	496	39	24	
0	0	0	0	0	509	469	0	495	39	27	
1	0	0	0	0	509	470	0	486	39	28	
2	0	0	0	0	510	474	0	485	39	29	
3	0	0	0	0	508	476	0	510	39	29	
4	0	0	0	0	510	479	0	522	39	26	
5	0	0	0	0	512	484	0	520	39	23	
6	0	0	0	0	508	489	0	520	39	22	
7	0	0	0	0	503	491	0	539	39	23	
8	0	0	0	0	512	495	0	542	39	26	
9	0	0	0	0	502	492	0	532	39	28	
10	0	0	0	0	509	474	0	519	39	29	
11	0	0	0	0	515	468	0	508	39	29	
12	0	0	0	0	507	467	0	502	39	27	
13	0	0	0	0	504	472	0	495	39	24	
14	0	0	0	0	506	480	0	491	39	22	
15	0	0	0	0	510	489	0	489	39	23	
0	0	0	0	0	508	492	0	495	39	25	
1	0	0	0	0	509	483	0	515	39	27	
2	0	0	0	0	513	476	0	523	39	29	
3	0	0	0	0	505	471	0	519	39	29	
4	0	0	0	0	503	467	0	521	39	28	
5	0	0	0	0	504	471	0	520	39	25	
6	0	0	0	0	512	469	0	515	39	23	
7	0	0	0	0	517	467	0	506	39	22	
8	0	0	0	0	506	462	0	498	39	24	
9	0	0	0	0	503	460	0	504	39	27	
10	0	0	0	0	511	463	0	524	39	28	
11	0	0	0	0	509	468	0	531	39	29	
12	0	0	0	0	512	473	0	524	39	29	
13	0	0	0	0	505	476	0	509	39	26	
14	0	0	0	0	509	476	0	505	39	23	
15	0	0	0	0	509	476	0	494	39	22	
0	0	0	0	0	505	478	0	491	39	23	
1	0	0	0	0	504	481	0	508	39	26	
2	0	0	0	0	509	485	0	523	39	28	
3	0	0	0	0	510	485	0	519	39	29	
4	0	0	0	0	503	481	0	511	39	29	
5	0	0	0	0	506	482	0	502	39	27	
6	0	0	0	0	512	483	0	493	39	24	
7	0	0	0	0	515	484	0	484	39	22	
8	0	0	0	0	508	483	0	489	39	23	
9	0	0	0	0	511	478	0	504	39	25	
10	0	0	0	0	508	477	0	507	39	27	
11	0	0	0	0	508	478	0	502	39	29	
12	0	0	0	0	509	481	0	494	39	29	
13	0	0	0	0	505	484	0	488	39	28	
14	0	0	0	0	506	489	0	483	39	25	
15	0	0	0	0	507	487	0	480	39	23	
0	0	0	0	0	509	475	0	478	39	22	
1	0	0	0	0	507	475	0	492	39	24	
2	0	0	0	0	505	476	0	509	39	27	
3	0	0	0	0	509	483	0	512	39	28	
4	0	0	0	0	505	488	0	507	39	29	
5	0	0	0	0	505	489	0	510	39	29	
6	0	0	0	0	510	481	0	504	39	26	
7	0	0	0	0	506	472	0	508	39	23	
8	0	0	0	0	504	464	0	525	39	22	
9	0	0	0	0	510	467	0	525	39	23	
10	0	0	0	0	514	473	0	516	39	26	
11	0	0	0	0	509	483	0	502	39	28	
12	0	0	0	0	509	491	0	492	39	29	
13	0	0	0	0	505	491	0	485	39	29	
14	0	0	0	0	509	484	0	480	39	27	
15	0	0	0	0	504	481	0	477	39	24	
0	0	0	0	0	506	481	0	474	39	22	
1	0	0	0	0	508	485	0	470	39	23	
2	0	0	0	0	504	489	0	469	39	25	
3	0	0	0	0	510	490	0	472	39	27	
4	0	0	0	0	511	492	0	494	39	29	
5	0	0	0	0	511	493	0	507	39	29	
6	0	0	0	0	512	494	0	518	39	28	
7	0	0	0	0	511	493	0	533	39	25	
8	0	0	0	0	505	488	0	529	39	23	
9	0	0	0	0	510	485	0	516	39	22	
10	0	0	0	0	509	484	0	502	39	24	
11	0	0	0	0	510	488	0	489	39	27	
12	0	0	0	0	502	495	0	482	39	28	
13	0	0	0	0	509	502	0	478	39	29	
14	0	0	0	0	515	502	0	474	39	29	
15	0	0	0	0	512	500	0	471	39	26	
0	0	0	0	0	505	498	0	480	39	23	
1	0	0	0	0	508	498	0	498	39	22	
2	0	0	0	0	507	499	0	502	39	23	
3	0	0	0	0	507	504	0	499	39	26	
4	0	0	0	0	508	507	0	493	39	28	
5	0	0	0	0	508	507	0	493	39	29	
6	0	0	0	0	509	505	0	494	39	29	
7	0	0	0	0	508	507	0	492	39	27	
8	0	0	0	0	508	507	0	510	39	24	
9	0	0	0	0	508	500	0	519	39	22	
10	0	0	0	0	506	495	0	515	39	23	
11	0	0	0	0	506	490	0	506	39	25	
12	0	0	0	0	509	484	0	497	39	27	
13	0	0	0	0	511	485	0	489	39	29	
14	0	0	0	0	510	495	0	483	39	29	
15	0	0	0	0	508	503	0	479	39	28	
0	0	0	0	0	520	502	0	477	39	25	
1	0	0	0	0	508	498	0	479	39	23	
2	0	0	0	0	502	499	0	499	39	22	
3	0	0	0	0	513	504	0	515	39	24	
4	0	0	0	0	509	507	0	515	39	27	
5	0	0	0	0	513	509	0	507	39	28	
6	0	0	0	0	505	509	0	499	39	29	
7	0	0	0	0	505	508	0	491	39	29	
8	0	0	0	0	504	511	0	507	39	26	
9	0	0	0	0	505	515	0	513	39	23	
10	0	0	0	0	507	513	0	513	39	22	
11	0	0	0	0	501	513	0	507	39	23	
12	0	0	0	0	513	508	0	497	39	26	
13	0	0	0	0	508	500	0	491	39	28	
14	0	0	0	0	511	500	0	484	39	29	
15	0	0	0	0	507	506	0	480	39	29	
0	0	0	0	0	508	507	0	478	39	27	
1	0	0	0	0	509	501	0	496	39	24	
2	0	0	0	0	502	489	0	511	39	22	
3	0	0	0	0	505	482	0	509	39	23	
4	0	0	0	0	503	482	0	508	39	25	
5	0	0	0	0	508	487	0	507	39	27	
6	0	0	0	0	507	498	0	500	39	29	
7	0	0	0	0	509	505	0	510	39	29	
8	0	0	0	0	513	507	0	521	39	28	
9	0	0	0	0	513	501	0	516	39	25	
10	0	0	0	0	499	491	0	507	39	23	
11	0	0	0	0	511	487	0	496	39	22	
12	0	0	0	0	513	492	0	486	39	24	
13	0	0	0	0	512	499	0	479	39	27	
14	0	0	0	0	510	502	0	474	39	28	
15	0	0	0	0	511	502	0	473	39	29	
0	0	0	0	0	508	505	0	473	39	29	
1	0	0	0	0	507	507	0	488	39	26	
2	0	0	0	0	505	508	0	510	39	23	
3	0	0	0	0	511	508	0	515	39	22	
4	0	0	0	0	503	510	0	508	39	23	
5	0	0	0	0	508	509	0	500	39	26	
6	0	0	0	0	509	508	0	491	39	28	
7	0	0	0	0	508	510	0	495	39	29	
8	0	0	0	0	508	512	0	508	39	29	
9	0	0	0	0	503	515	0	506	39	27	
10	0	0	0	0	508	513	0	499	39	24	
11	0	0	0	0	511	508	0	491	39	22	
12	0	0	0	0	508	504	0	486	39	23	
13	0	0	0	0	511	504	0	485	39	25	
14	0	0	0	0	511	505	0	481	39	27	
15	0	0	0	0	506	506	0	480	39	29	
0	0	0	0	0	511	508	0	478	39	29	
1	0	0	0	0	502	508	0	490	39	28	
2	0	0	0	0	508	507	0	513	39	25	
3	0	0	0	0	511	504	0	521	39	23	
4	0	0	0	0	516	505	0	516	39	22	
5	0	0	0	0	505	506	0	519	39	24	
6	0	0	0	0	508	507	0	514	39	27	
7	0	0	0	0	505	511	0	515	39	28	
8	0	0	0	0	510	517	0	534	39	29	
9	0	0	0	0	507	521	0	540	39	29	
10	0	0	0	0	502	516	0	532	39	26	
11	0	0	0	0	513	509	0	519	39	23	
12	0	0	0	0	508	502	0	509	39	22	
13	0	0	0	0	508	503	0	503	39	23	
14	0	0	0	0	512	509	0	496	39	26	
15	0	0	0	0	505	500	0	492	39	28	
0	0	0	0	0	504	491	0	501	39	29	
1	0	0	0	0	509	488	0	526	39	29	
2	0	0	0	0	511	493	0	524	39	27	
3	0	0	0	0	513	498	0	527	39	24	
4	0	0	0	0	507	498	0	527	39	22	
5	0	0	0	0	504	499	0	510	39	23	
6	0	0	0	0	505	502	0	502	39	25	
7	0	0	0	0	508	505	0	499	39	27	
8	0	0	0	0	507	507	0	494	39	29	
9	0	0	0	0	511	503	0	492	39	29	
10	0	0	0	0	517	497	0	503	39	28	
11	0	0	0	0	512	490	0	526	39	25	
12	0	0	0	0	499	493	0	531	39	23	
13	0	0	0	0	503	497	0	526	39	22	
14	0	0	0	0	505	499	0	534	39	24	
15	0	0	0	0	505	504	0	542	39	27	
0	0	0	0	0	508	508	0	534	39	28	
1	0	0	0	0	507	508	0	525	39	29	
2	0	0	0	0	504	508	0	525	39	29	
3	0	0	0	0	512	507	0	518	39	26	
4	0	0	0	0	515	501	0	512	39	23	
5	0	0	0	0	512	500	0	507	39	22	
6	0	0	0	0	511	499	0	502	39	23	
7	0	0	0	0	509	500	0	500	39	26	
8	0	0	0	0	505	506	0	498	39	28	
9	0	0	0	0	503	515	0	497	39	29	
10	0	0	0	0	505	516	0	499	39	29	
11	0	0	0	0	508	506	0	503	39	27	
12	0	0	0	0	513	500	0	526	39	24	
13	0	0	0	0	505	502	0	543	39	22	
14	0	0	0	0	510	506	0	555	39	23	
15	0	0	0	0	508	510	0	571	39	25	
0	0	0	0	0	508	508	0	569	39	27	
1	0	0	0	0	510	505	0	579	39	29	
2	0	0	0	0	505	505	0	582	39	29	
3	0	0	0	0	510	507	0	572	39	28	
4	0	0	0	0	499	511	0	556	39	25	
5	0	0	0	0	503	516	0	543	39	23	
6	0	0	0	0	511	517	0	531	39	22	
7	0	0	0	0	508	513	0	522	39	24	
8	0	0	0	0	501	515	0	527	39	27	
9	0	0	0	0	503	520	0	544	39	28	
10	0	0	0	0	505	525	0	546	39	29	
11	0	0	0	0	508	517	0	541	39	29	
12	0	0	0	0	516	508	0	532	39	26	
13	0	0	0	0	515	493	0	524	39	23	
14	0	0	0	0	504	490	0	517	39	22	
15	0	0	0	0	510	496	0	513	39	23	
0	0	0	0	0	511	499	0	508	39	26	
1	0	0	0	0	504	498	0	524	39	28	
2	0	0	0	0	508	494	0	543	39	29	
3	0	0	0	0	515	493	0	546	39	29	
4	0	0	0	0	508	496	0	540	39	27	
5	0	0	0	0	506	501	0	531	39	24	
6	0	0	0	0	503	500	0	533	39	22	
7	0	0	0	0	506	497	0	542	39	23	
8	0	0	0	0	509	497	0	559	39	25	
9	0	0	0	0	506	501	0	560	39	27	
10	0	0	0	0	512	504	0	553	39	29	
11	0	0	0	0	508	504	0	539	39	29	
12	0	0	0	0	511	506	0	527	39	28	
13	0	0	0	0	508	509	0	518	39	25	
14	0	0	0	0	510	512	0	511	39	23	
15	0	0	0	0	509	511	0	504	39	22	
0	0	0	0	0	503	511	0	500	39	24	
1	0	0	0	0	511	511	0	510	39	26	
2	0	0	0	0	508	510	0	534	39	28	
3	0	0	0	0	513	509	0	539	39	29	
4	0	0	0	0	508	513	0	533	39	29	
5	0	0	0	0	506	515	0	523	39	26	
6	0	0	0	0	507	517	0	514	39	23	
7	0	0	0	0	507	519	0	512	39	22	
8	0	0	0	0	504	523	0	529	39	23	
9	0	0	0	0	506	525	0	533	39	26	
10	0	0	0	0	505	528	0	527	39	28	
11	0	0	0	0	508	531	0	518	39	29	
12	0	0	0	0	512	532	0	510	39	29	
13	0	0	0	0	507	526	0	504	39	27	
14	0	0	0	0	510	524	0	500	39	24	
15	0	0	0	0	512	524	0	496	39	22	
0	0	0	0	0	504	522	0	504	39	23	
1	0	0	0	0	510	523	0	521	39	25	
2	0	0	0	0	506	523	0	524	39	27	
3	0	0	0	0	507	524	0	520	39	29	
4	0	0	0	0	509	526	0	521	39	29	
5	0	0	0	0	508	526	0	519	39	28	
6	0	0	0	0	512	527	0	514	39	25	
7	0	0	0	0	509	524	0	508	39	23	
8	0	0	0	0	507	523	0	503	39	22	
9	0	0	0	0	507	525	0	498	39	24	
10	0	0	0	0	506	523	0	507	39	26	
11	0	0	0	0	508	521	0	530	39	28	
12	0	0	0	0	504	518	0	536	39	29	
13	0	0	0	0	515	518	0	530	39	29	
14	0	0	0	0	506	519	0	520	39	26	
15	0	0	0	0	507	524	0	511	39	23	
0	0	0	0	0	507	531	0	511	39	22	
1	0	0	0	0	505	537	0	528	39	23	
2	0	0	0	0	513	533	0	535	39	26	
3	0	0	0	0	508	532	0	529	39	28	
4	0	0	0	0	505	535	0	519	39	29	
5	0	0	0	0	511	535	0	510	39	29	
6	0	0	0	0	513	528	0	503	39	27	
7	0	0	0	0	508	520	0	498	39	24	
8	0	0	0	0	508	521	0	494	39	22	
9	0	0	0	0	507	527	0	504	39	23	
10	0	0	0	0	508	527	0	525	39	25	
11	0	0	0	0	504	524	0	530	39	27	
12	0	0	0	0	512	524	0	524	39	29	
13	0	0	0	0	513	525	0	512	39	29	
14	0	0	0	0	510	526	0	503	39	28	
15	0	0	0	0	514	523	0	501	39	25	
0	0	0	0	0	510	521	0	518	39	23	
1	0	0	0	0	504	521	0	523	39	22	
2	0	0	0	0	500	522	0	518	39	24	
3	0	0	0	0	505	523	0	518	39	26	
4	0	0	0	0	512	519	0	516	39	28	
5	0	0	0	0	504	515	0	511	39	29	
6	0	0	0	0	504	510	0	504	39	29	
7	0	0	0	0	508	502	0	497	39	26	
8	0	0	0	0	515	501	0	491	39	23	
9	0	0	0	0	510	505	0	494	39	22	
10	0	0	0	0	504	502	0	531	39	23	
11	0	0	0	0	509	497	0	526	39	26	
12	0	0	0	0	504	499	0	519	39	28	
13	0	0	0	0	514	498	0	511	39	29	
14	0	0	0	0	506	500	0	504	39	29	
15	0	0	0	0	511	499	0	496	39	27	
0	0	0	0	0	507	494	0	528	39	24	
1	0	0	0	0	505	489	0	520	39	22	
2	0	0	0	0	513	483	0	534	39	23	
3	0	0	0	0	507	480	0	518	39	25	
4	0	0	0	0	508	482	0	512	39	27	
5	0	0	0	0	506	483	0	498	39	29	
6	0	0	0	0	503	484	0	492	39	29	
7	0	0	0	0	511	486	0	489	39	28	
8	0	0	0	0	506	489	0	512	39	25	
9	0	0	0	0	501	491	0	516	39	23	
10	0	0	0	0	505	494	0	524	39	22	
11	0	0	0	0	512	497	0	520	39	24	
12	0	0	0	0	508	500	0	514	39	26	
13	0	0	0	0	513	500	0	508	39	28	
14	0	0	0	0	508	494	0	506	39	29	
15	0	0	0	0	508	487	0	499	39	29	
0	0	0	0	0	506	491	0	511	39	26	
1	0	0	0	0	504	494	0	523	39	23	
2	0	0	0	0	507	499	0	523	39	22	
3	0	0	0	0	508	500	0	519	39	23	
4	0	0	0	0	504	499	0	520	39	26	
5	0	0	0	0	507	501	0	515	39	28	
6	0	0	0	0	502	503	0	507	39	29	
7	0	0	0	0	513	505	0	500	39	29	
8	0	0	0	0	510	506	0	495	39	27	
9	0	0	0	0	512	507	0	489	39	24	
10	0	0	0	0	510	506	0	502	39	22	
11	0	0	0	0	509	507	0	522	39	23	
12	0	0	0	0	508	507	0	523	39	25	
13	0	0	0	0	507	507	0	516	39	27	
14	0	0	0	0	506	506	0	508	39	29	
15	0	0	0	0	513	497	0	499	39	29	
0	0	0	0	0	510	494	0	504	39	28	
1	0	0	0	0	508	498	0	519	39	25	
2	0	0	0	0	506	504	0	521	39	23	
3	0	0	0	0	510	505	0	514	39	22	
4	0	0	0	0	509	505	0	505	39	24	
5	0	0	0	0	508	507	0	497	39	26	
6	0	0	0	0	507	504	0	492	39	28	
7	0	0	0	0	504	499	0	489	39	29	
8	0	0	0	0	506	498	0	486	39	29	
9	0	0	0	0	512	499	0	500	39	26	
10	0	0	0	0	512	501	0	518	39	23	
11	0	0	0	0	503	502	0	519	39	22	
12	0	0	0	0	510	503	0	515	39	23	
13	0	0	0	0	506	506	0	507	39	26	
14	0	0	0	0	508	508	0	499	39	28	
15	0	0	0	0	511	506	0	505	39	29	
0	0	0	0	0	511	508	0	521	39	29	
1	0	0	0	0	511	512	0	521	39	27	
2	0	0	0	0	506	511	0	516	39	24	
3	0	0	0	0	504	509	0	519	39	22	
4	0	0	0	0	511	512	0	517	39	23	
5	0	0	0	0	501	517	0	511	39	25	
6	0	0	0	0	500	524	0	507	39	27	
7	0	0	0	0	504	531	0	500	39	29	
8	0	0	0	0	510	539	0	496	39	29	
9	0	0	0	0	514	548	0	492	39	28	
10	0	0	0	0	502	561	0	507	39	25	
11	0	0	0	0	506	574	0	522	39	23	
12	0	0	0	0	511	584	0	548	39	22	
13	0	0	0	0	510	591	0	526	39	24	
14	0	0	0	0	506	600	0	518	39	26	
15	0	0	0	0	507	609	0	509	39	28	
0	0	0	0	0	510	626	0	504	39	29	
1	0	0	0	0	507	643	0	519	39	29	
2	0	0	0	0	512	657	0	531	39	26	
3	0	0	0	0	511	671	0	529	39	23	
4	0	0	0	0	502	687	0	521	39	22	
5	0	0	0	0	508	704	0	512	39	23	
6	0	0	0	0	507	719	0	504	39	26	
7	0	0	0	0	504	727	0	497	39	28	
8	0	0	0	0	512	739	0	505	39	29	
9	0	0	0	0	505	753	0	522	39	29	
10	0	0	0	0	506	766	0	529	39	27	
11	0	0	0	0	505	779	0	547	39	24	
12	0	0	0	0	508	790	0	553	39	22	
13	0	0	0	0	510	794	0	545	39	23	
14	0	0	0	0	514	794	0	541	39	25	
15	0	0	0	0	503	794	0	551	39	27	
0	0	0	0	0	512	792	0	549	39	29	
1	0	0	0	0	515	788	0	554	39	29	
2	0	0	0	0	504	780	0	575	39	28	
3	0	0	0	0	512	766	0	554	39	25	
4	0	0	0	0	505	747	0	540	39	23	
5	0	0	0	0	511	723	0	527	39	22	
6	0	0	0	0	504	695	0	527	39	24	
7	0	0	0	0	505	668	0	535	39	26	
8	0	0	0	0	503	643	0	554	39	28	
9	0	0	0	0	504	620	0	560	39	29	
10	0	0	0	0	506	596	0	547	39	29	
11	0	0	0	0	509	575	0	534	39	26	
12	0	0	0	0	512	555	0	523	39	23	
13	0	0	0	0	510	531	0	515	39	22	
14	0	0	0	0	510	504	0	511	39	23	
15	0	0	0	0	508	477	0	507	39	26	
0	0	0	0	0	504	460	0	505	39	28	
1	0	0	0	0	512	452	0	515	39	29	
2	0	0	0	0	508	444	0	540	39	29	
3	0	0	0	0	512	431	0	548	39	27	
4	0	0	0	0	515	416	0	544	39	24	
5	0	0	0	0	506	409	0	536	39	22	
6	0	0	0	0	504	404	0	529	39	22	
7	0	0	0	0	511	399	0	526	39	25	
8	0	0	0	0	508	397	0	542	39	27	
9	0	0	0	0	505	397	0	547	39	29	
10	0	0	0	0	508	401	0	542	39	29	
11	0	0	0	0	505	401	0	534	39	28	
12	0	0	0	0	508	396	0	528	39	25	
13	0	0	0	0	504	399	0	523	39	23	
14	0	0	0	0	509	401	0	517	39	22	
15	0	0	0	0	510	403	0	512	39	24	
0	0	0	0	0	500	406	0	520	39	26	
1	0	0	0	0	508	408	0	539	39	28	
2	0	0	0	0	505	411	0	543	39	29	
3	0	0	0	0	510	412	0	537	39	29	
4	0	0	0	0	511	412	0	531	39	26	
5	0	0	0	0	513	413	0	532	39	23	
6	0	0	0	0	512	413	0	534	39	22	
7	0	0	0	0	512	414	0	534	39	23	
8	0	0	0	0	506	419	0	553	39	26	
9	0	0	0	0	509	424	0	564	39	28	
10	0	0	0	0	504	428	0	559	39	29	
11	0	0	0	0	506	429	0	549	39	29	
12	0	0	0	0	504	432	0	538	39	27	
13	0	0	0	0	511	437	0	528	39	24	
14	0	0	0	0	505	440	0	519	39	22	
15	0	0	0	0	513	443	0	514	39	22	
0	0	0	0	0	507	446	0	513	39	25	
1	0	0	0	0	511	451	0	514	39	27	
2	0	0	0	0	509	452	0	535	39	29	
3	0	0	0	0	506	451	0	550	39	29	
4	0	0	0	0	513	450	0	549	39	28	
5	0	0	0	0	510	443	0	543	39	25	
6	0	0	0	0	504	440	0	533	39	23	
7	0	0	0	0	511	441	0	525	39	22	
8	0	0	0	0	510	446	0	534	39	24	
9	0	0	0	0	513	454	0	543	39	26	
10	0	0	0	0	506	460	0	542	39	28	
11	0	0	0	0	500	464	0	535	39	29	
12	0	0	0	0	511	470	0	525	39	29	
13	0	0	0	0	512	456	0	517	39	26	
14	0	0	0	0	508	439	0	511	39	23	
15	0	0	0	0	514	436	0	507	39	22	
0	0	0	0	0	510	444	0	506	39	23	
1	0	0	0	0	507	452	0	524	39	26	
2	0	0	0	0	510	455	0	539	39	28	
3	0	0	0	0	506	453	0	548	39	29	
4	0	0	0	0	510	458	0	567	39	29	
5	0	0	0	0	506	463	0	568	39	27	
6	0	0	0	0	504	465	0	579	39	24	
7	0	0	0	0	504	465	0	575	39	22	
8	0	0	0	0	507	460	0	566	39	22	
9	0	0	0	0	504	457	0	555	39	25	
10	0	0	0	0	508	460	0	541	39	27	
11	0	0	0	0	509	464	0	541	39	29	
12	0	0	0	0	509	469	0	521	39	29	
13	0	0	0	0	513	473	0	509	39	28	
14	0	0	0	0	505	474	0	504	39	25	
15	0	0	0	0	500	479	0	502	39	23	
0	0	0	0	0	508	482	0	499	39	22	
1	0	0	0	0	503	480	0	497	39	24	
2	0	0	0	0	515	483	0	499	39	26	
3	0	0	0	0	512	478	0	505	39	28	
4	0	0	0	0	509	476	0	531	39	29	
5	0	0	0	0	512	476	0	545	39	29	
6	0	0	0	0	512	477	0	559	39	26	
7	0	0	0	0	506	477	0	569	39	23	
8	0	0	0	0	511	478	0	566	39	22	
9	0	0	0	0	510	478	0	575	39	23	
10	0	0	0	0	504	478	0	570	39	25	
11	0	0	0	0	500	478	0	554	39	28	
12	0	0	0	0	510	476	0	537	39	29	
13	0	0	0	0	503	477	0	524	39	29	
14	0	0	0	0	504	481	0	515	39	27	
15	0	0	0	0	508	484	0	508	39	24	
0	0	0	0	0	507	487	0	520	39	22	
1	0	0	0	0	510	490	0	533	39	22	
2	0	0	0	0	508	491	0	532	39	25	
3	0	0	0	0	504	494	0	527	39	27	
4	0	0	0	0	510	495	0	520	39	29	
5	0	0	0	0	511	494	0	524	39	29	
6	0	0	0	0	504	493	0	531	39	28	
7	0	0	0	0	512	484	0	533	39	25	
8	0	0	0	0	512	473	0	530	39	23	
9	0	0	0	0	499	470	0	545	39	22	
10	0	0	0	0	507	472	0	555	39	24	
11	0	0	0	0	507	473	0	549	39	26	
12	0	0	0	0	507	478	0	539	39	28	
13	0	0	0	0	509	482	0	526	39	29	
14	0	0	0	0	506	485	0	515	39	29	
15	0	0	0	0	505	487	0	507	39	26	
0	0	0	0	0	512	488	0	502	39	23	
1	0	0	0	0	512	488	0	506	39	22	
2	0	0	0	0	510	491	0	529	39	23	
3	0	0	0	0	509	493	0	537	39	25	
4	0	0	0	0	511	495	0	533	39	28	
5	0	0	0	0	508	494	0	538	39	29	
6	0	0	0	0	508	494	0	519	39	29	
7	0	0	0	0	507	497	0	514	39	27	
8	0	0	0	0	504	499	0	528	39	24	
9	0	0	0	0	505	498	0	539	39	22	
10	0	0	0	0	506	501	0	536	39	22	
11	0	0	0	0	506	498	0	530	39	25	
12	0	0	0	0	513	491	0	523	39	27	
13	0	0	0	0	505	480	0	517	39	29	
14	0	0	0	0	511	482	0	509	39	29	
15	0	0	0	0	507	487	0	504	39	28	
0	0	0	0	0	508	493	0	508	39	25	
1	0	0	0	0	512	498	0	529	39	23	
2	0	0	0	0	508	504	0	535	39	22	
3	0	0	0	0	507	504	0	531	39	24	
4	0	0	0	0	505	499	0	533	39	26	
5	0	0	0	0	514	499	0	531	39	28	
6	0	0	0	0	509	498	0	524	39	29	
7	0	0	0	0	508	497	0	514	39	29	
8	0	0	0	0	510	493	0	507	39	26	
9	0	0	0	0	502	489	0	500	39	23	
10	0	0	0	0	513	492	0	511	39	22	
11	0	0	0	0	504	496	0	500	39	23	
12	0	0	0	0	510	498	0	494	39	25	
13	0	0	0	0	511	499	0	491	39	28	
14	0	0	0	0	509	498	0	490	39	29	
15	0	0	0	0	510	500	0	491	39	29	
0	0	0	0	0	510	504	0	486	39	27	
1	0	0	0	0	507	500	0	480	39	24	
2	0	0	0	0	510	496	0	494	39	22	
3	0	0	0	0	505	498	0	498	39	22	
4	0	0	0	0	511	505	0	485	39	25	
5	0	0	0	0	505	511	0	487	39	27	
6	0	0	0	0	508	511	0	489	39	29	
7	0	0	0	0	501	514	0	487	39	29	
8	0	0	0	0	512	514	0	481	39	28	
9	0	0	0	0	511	512	0	479	39	25	
10	0	0	0	0	504	515	0	479	39	23	
11	0	0	0	0	510	519	0	480	39	22	
12	0	0	0	0	506	518	0	481	39	24	
13	0	0	0	0	512	515	0	480	39	26	
14	0	0	0	0	512	518	0	486	39	28	
15	0	0	0	0	501	521	0	508	39	29	
0	0	0	0	0	506	522	0	514	39	29	
1	0	0	0	0	509	520	0	508	39	26	
2	0	0	0	0	513	518	0	498	39	23	
3	0	0	0	0	504	521	0	497	39	22	
4	0	0	0	0	510	524	0	524	39	23	
5	0	0	0	0	509	531	0	532	39	25	
6	0	0	0	0	509	536	0	545	39	28	
7	0	0	0	0	509	538	0	549	39	29	
8	0	0	0	0	507	538	0	543	39	29	
9	0	0	0	0	508	529	0	554	39	27	
10	0	0	0	0	503	525	0	552	39	24	
11	0	0	0	0	512	528	0	563	39	22	
12	0	0	0	0	506	528	0	560	39	22	
13	0	0	0	0	512	530	0	553	39	25	
14	0	0	0	0	505	528	0	545	39	27	
15	0	0	0	0	504	516	0	550	39	29	
0	0	0	0	0	509	510	0	550	39	29	
1	0	0	0	0	509	513	0	537	39	28	
2	0	0	0	0	511	524	0	520	39	25	
3	0	0	0	0	515	538	0	506	39	23	
4	0	0	0	0	505	545	0	494	39	22	
5	0	0	0	0	504	545	0	484	39	24	
6	0	0	0	0	503	543	0	481	39	26	
7	0	0	0	0	504	536	0	480	39	28	
8	0	0	0	0	509	527	0	479	39	29	
9	0	0	0	0	502	532	0	496	39	29	
10	0	0	0	0	511	540	0	512	39	26	
11	0	0	0	0	510	546	0	512	39	23	
12	0	0	0	0	508	550	0	507	39	22	
13	0	0	0	0	502	550	0	499	39	23	
14	0	0	0	0	510	544	0	494	39	25	
15	0	0	0	0	508	535	0	489	39	28	
0	0	0	0	0	511	530	0	497	39	29	
1	0	0	0	0	506	534	0	514	39	29	
2	0	0	0	0	512	539	0	519	39	27	
3	0	0	0	0	510	543	0	516	39	24	
4	0	0	0	0	506	547	0	520	39	22	
5	0	0	0	0	504	553	0	516	39	22	
6	0	0	0	0	512	557	0	511	39	25	
7	0	0	0	0	508	560	0	505	39	27	
8	0	0	0	0	507	557	0	500	39	29	
9	0	0	0	0	511	553	0	495	39	29	
10	0	0	0	0	507	547	0	505	39	28	
11	0	0	0	0	509	545	0	528	39	25	
12	0	0	0	0	514	547	0	533	39	23	
13	0	0	0	0	510	549	0	527	39	22	
14	0	0	0	0	507	552	0	517	39	24	
15	0	0	0	0	508	556	0	508	39	26	
0	0	0	0	0	510	556	0	506	39	28	
1	0	0	0	0	500	554	0	524	39	29	
2	0	0	0	0	503	548	0	529	39	29	
3	0	0	0	0	513	544	0	525	39	26	
4	0	0	0	0	508	547	0	515	39	23	
5	0	0	0	0	508	555	0	504	39	22	
6	0	0	0	0	504	559	0	496	39	23	
7	0	0	0	0	513	562	0	488	39	25	
8	0	0	0	0	505	563	0	500	39	28	
9	0	0	0	0	507	561	0	513	39	29	
10	0	0	0	0	512	559	0	514	39	29	
11	0	0	0	0	505	558	0	509	39	27	
12	0	0	0	0	504	556	0	502	39	24	
13	0	0	0	0	513	555	0	494	39	22	
14	0	0	0	0	512	555	0	489	39	22	
15	0	0	0	0	512	555	0	487	39	25	
0	0	0	0	0	504	555	0	487	39	27	
1	0	0	0	0	499	556	0	508	39	29	
2	0	0	0	0	510	558	0	526	39	29	
3	0	0	0	0	503	557	0	526	39	28	
4	0	0	0	0	505	559	0	525	39	25	
5	0	0	0	0	505	562	0	525	39	23	
6	0	0	0	0	511	559	0	516	39	22	
7	0	0	0	0	507	553	0	506	39	24	
8	0	0	0	0	505	548	0	498	39	26	
9	0	0	0	0	511	545	0	501	39	28	
10	0	0	0	0	512	543	0	522	39	29	
11	0	0	0	0	503	542	0	529	39	29	
12	0	0	0	0	504	540	0	524	39	26	
13	0	0	0	0	511	540	0	516	39	23	
14	0	0	0	0	512	538	0	509	39	22	
15	0	0	0	0	512	539	0	504	39	23	
0	0	0	0	0	508	539	0	519	39	25	
1	0	0	0	0	513	542	0	531	39	27	
2	0	0	0	0	502	534	0	528	39	29	
3	0	0	0	0	510	515	0	521	39	29	
4	0	0	0	0	511	503	0	512	39	27	
5	0	0	0	0	511	499	0	506	39	24	
6	0	0	0	0	504	496	0	500	39	22	
7	0	0	0	0	513	486	0	497	39	22	
8	0	0	0	0	508	481	0	502	39	25	
9	0	0	0	0	504	481	0	523	39	27	
10	0	0	0	0	509	481	0	531	39	29	
11	0	0	0	0	503	483	0	545	39	29	
12	0	0	0	0	511	487	0	558	39	28	
13	0	0	0	0	503	487	0	558	39	25	
14	0	0	0	0	515	485	0	570	39	23	
15	0	0	0	0	507	480	0	563	39	22	
0	0	0	0	0	507	476	0	562	39	24	
1	0	0	0	0	513	472	0	562	39	26	
2	0	0	0	0	508	470	0	553	39	28	
3	0	0	0	0	508	469	0	542	39	29	
4	0	0	0	0	505	467	0	538	39	29	
5	0	0	0	0	504	465	0	530	39	26	
6	0	0	0	0	511	465	0	520	39	24	
7	0	0	0	0	502	470	0	516	39	22	
8	0	0	0	0	504	471	0	508	39	23	
9	0	0	0	0	513	466	0	504	39	25	
10	0	0	0	0	506	465	0	515	39	27	
11	0	0	0	0	506	465	0	537	39	29	
12	0	0	0	0	508	457	0	558	39	29	
13	0	0	0	0	512	455	0	535	39	27	
14	0	0	0	0	507	459	0	526	39	24	
15	0	0	0	0	509	464	0	519	39	22	
0	0	0	0	0	508	458	0	513	39	22	
1	0	0	0	0	512	451	0	513	39	25	
2	0	0	0	0	511	442	0	536	39	27	
3	0	0	0	0	508	440	0	545	39	29	
4	0	0	0	0	511	437	0	559	39	29	
5	0	0	0	0	511	435	0	570	39	28	
6	0	0	0	0	510	440	0	568	39	25	
7	0	0	0	0	508	442	0	578	39	23	
8	0	0	0	0	509	442	0	572	39	22	
9	0	0	0	0	507	443	0	556	39	24	
10	0	0	0	0	504	444	0	540	39	26	
11	0	0	0	0	508	442	0	527	39	28	
12	0	0	0	0	508	440	0	518	39	29	
13	0	0	0	0	504	440	0	510	39	29	
14	0	0	0	0	507	441	0	505	39	26	
15	0	0	0	0	499	442	0	504	39	24	
0	0	0	0	0	514	443	0	508	39	22	
1	0	0	0	0	506	444	0	528	39	23	
2	0	0	0	0	513	449	0	537	39	25	
3	0	0	0	0	504	449	0	551	39	27	
4	0	0	0	0	513	442	0	564	39	29	
5	0	0	0	0	510	436	0	564	39	29	
6	0	0	0	0	506	433	0	575	39	27	
7	0	0	0	0	505	433	0	569	39	24	
8	0	0	0	0	511	436	0	561	39	22	
9	0	0	0	0	509	439	0	547	39	22	
10	0	0	0	0	508	441	0	534	39	25	
11	0	0	0	0	508	443	0	521	39	27	
12	0	0	0	0	512	446	0	512	39	29	
13	0	0	0	0	512	451	0	504	39	29	
14	0	0	0	0	506	460	0	501	39	28	
15	0	0	0	0	504	462	0	500	39	25	
0	0	0	0	0	505	462	0	500	39	23	
1	0	0	0	0	508	456	0	499	39	22	
2	0	0	0	0	510	453	0	498	39	24	
3	0	0	0	0	512	452	0	508	39	26	
4	0	0	0	0	511	455	0	532	39	28	
5	0	0	0	0	500	458	0	540	39	29	
6	0	0	0	0	504	461	0	557	39	29	
7	0	0	0	0	510	460	0	559	39	27	
8	0	0	0	0	504	460	0	546	39	24	
9	0	0	0	0	511	459	0	531	39	22	
10	0	0	0	0	511	460	0	517	39	23	
11	0	0	0	0	510	463	0	507	39	25	
12	0	0	0	0	508	465	0	499	39	27	
13	0	0	0	0	511	465	0	496	39	29	
14	0	0	0	0	513	456	0	495	39	29	
15	0	0	0	0	507	450	0	497	39	27	
0	0	0	0	0	504	451	0	516	39	24	
1	0	0	0	0	505	451	0	528	39	22	
2	0	0	0	0	512	455	0	528	39	22	
3	0	0	0	0	504	462	0	523	39	25	
4	0	0	0	0	503	466	0	518	39	27	
5	0	0	0	0	509	458	0	521	39	28	
6	0	0	0	0	509	449	0	517	39	29	
7	0	0	0	0	511	452	0	512	39	28	
8	0	0	0	0	501	457	0	514	39	25	
9	0	0	0	0	511	464	0	507	39	23	
10	0	0	0	0	506	462	0	529	39	22	
11	0	0	0	0	512	462	0	539	39	24	
12	0	0	0	0	504	467	0	533	39	26	
13	0	0	0	0	505	471	0	527	39	28	
14	0	0	0	0	512	470	0	555	39	29	
15	0	0	0	0	512	470	0	547	39	29	
0	0	0	0	0	510	470	0	556	39	26	
1	0	0	0	0	508	471	0	560	39	24	
2	0	0	0	0	512	472	0	550	39	22	
3	0	0	0	0	510	472	0	537	39	23	
4	0	0	0	0	508	472	0	524	39	25	
5	0	0	0	0	511	472	0	510	39	27	
6	0	0	0	0	511	473	0	499	39	29	
7	0	0	0	0	510	476	0	493	39	29	
8	0	0	0	0	504	476	0	492	39	27	
9	0	0	0	0	509	479	0	512	39	24	
10	0	0	0	0	505	483	0	528	39	22	
11	0	0	0	0	508	486	0	527	39	22	
12	0	0	0	0	508	486	0	521	39	24	
13	0	0	0	0	507	487	0	511	39	27	
14	0	0	0	0	512	486	0	504	39	28	
15	0	0	0	0	512	480	0	496	39	29	
0	0	0	0	0	505	476	0	503	39	28	
1	0	0	0	0	502	478	0	519	39	25	
2	0	0	0	0	509	479	0	521	39	23	
3	0	0	0	0	506	479	0	516	39	22	
4	0	0	0	0	510	478	0	519	39	24	
5	0	0	0	0	507	475	0	515	39	26	
6	0	0	0	0	508	472	0	508	39	28	
7	0	0	0	0	505	471	0	501	39	29	
8	0	0	0	0	513	474	0	494	39	29	
9	0	0	0	0	513	477	0	489	39	26	
10	0	0	0	0	511	481	0	497	39	24	
11	0	0	0	0	516	489	0	519	39	22	
12	0	0	0	0	505	495	0	523	39	23	
13	0	0	0	0	510	494	0	516	39	25	
14	0	0	0	0	507	497	0	505	39	27	
15	0	0	0	0	507	498	0	496	39	29	
0	0	0	0	0	506	489	0	496	39	29	
1	0	0	0	0	511	476	0	513	39	27	
2	0	0	0	0	513	470	0	518	39	24	
3	0	0	0	0	510	472	0	511	39	22	
4	0	0	0	0	508	476	0	516	39	22	
5	0	0	0	0	504	472	0	495	39	24	
6	0	0	0	0	504	469	0	487	39	27	
7	0	0	0	0	504	473	0	481	39	28	
8	0	0	0	0	504	471	0	490	39	29	
9	0	0	0	0	508	472	0	503	39	28	
10	0	0	0	0	514	470	0	502	39	25	
11	0	0	0	0	510	464	0	493	39	23	
12	0	0	0	0	518	461	0	485	39	22	
13	0	0	0	0	508	468	0	476	39	24	
14	0	0	0	0	498	476	0	470	39	26	
15	0	0	0	0	512	479	0	465	39	28	
0	0	0	0	0	512	483	0	466	39	29	
1	0	0	0	0	508	486	0	486	39	29	
2	0	0	0	0	508	486	0	500	39	27	
3	0	0	0	0	504	487	0	499	39	24	
4	0	0	0	0	502	490	0	500	39	22	
5	0	0	0	0	508	492	0	501	39	23	
6	0	0	0	0	511	492	0	496	39	25	
7	0	0	0	0	516	496	0	506	39	27	
8	0	0	0	0	511	497	0	518	39	29	
9	0	0	0	0	508	492	0	515	39	29	
10	0	0	0	0	508	488	0	504	39	27	
11	0	0	0	0	505	486	0	494	39	25	
12	0	0	0	0	511	487	0	483	39	22	
13	0	0	0	0	515	494	0	475	39	22	
14	0	0	0	0	507	496	0	471	39	24	
15	0	0	0	0	503	499	0	468	39	27	
0	0	0	0	0	512	495	0	466	39	28	
1	0	0	0	0	508	490	0	480	39	29	
2	0	0	0	0	504	489	0	500	39	28	
3	0	0	0	0	505	490	0	504	39	26	
4	0	0	0	0	503	486	0	496	39	23	
5	0	0	0	0	498	482	0	486	39	22	
6	0	0	0	0	515	480	0	477	39	24	
7	0	0	0	0	509	480	0	480	39	26	
8	0	0	0	0	508	481	0	493	39	28	
9	0	0	0	0	515	484	0	490	39	29	
10	0	0	0	0	508	485	0	483	39	29	
11	0	0	0	0	506	486	0	474	39	27	
12	0	0	0	0	505	489	0	468	39	24	
13	0	0	0	0	508	491	0	464	39	22	
14	0	0	0	0	508	491	0	462	39	23	
15	0	0	0	0	508	494	0	460	39	25	
0	0	0	0	0	508	495	0	455	39	27	
1	0	0	0	0	508	496	0	453	39	29	
2	0	0	0	0	513	499	0	460	39	29	
3	0	0	0	0	510	502	0	486	39	27	
4	0	0	0	0	503	504	0	497	39	25	
5	0	0	0	0	511	508	0	511	39	22	
6	0	0	0	0	504	511	0	522	39	22	
7	0	0	0	0	511	513	0	520	39	24	
8	0	0	0	0	508	510	0	531	39	27	
9	0	0	0	0	507	507	0	528	39	28	
10	0	0	0	0	506	498	0	527	39	29	
11	0	0	0	0	508	488	0	516	39	28	
12	0	0	0	0	506	485	0	506	39	26	
13	0	0	0	0	507	487	0	495	39	23	
14	0	0	0	0	514	488	0	486	39	22	
15	0	0	0	0	510	490	0	478	39	24	
0	0	0	0	0	500	495	0	473	39	26	
1	0	0	0	0	504	501	0	476	39	28	
2	0	0	0	0	505	502	0	499	39	29	
3	0	0	0	0	510	499	0	509	39	29	
4	0	0	0	0	510	494	0	504	39	27	
5	0	0	0	0	512	491	0	496	39	24	
6	0	0	0	0	510	488	0	488	39	22	
7	0	0	0	0	506	489	0	482	39	23	
8	0	0	0	0	512	489	0	475	39	25	
9	0	0	0	0	509	487	0	487	39	27	
10	0	0	0	0	506	488	0	506	39	29	
11	0	0	0	0	505	493	0	508	39	29	
12	0	0	0	0	503	499	0	502	39	27	
13	0	0	0	0	509	502	0	492	39	25	
14	0	0	0	0	510	499	0	484	39	22	
15	0	0	0	0	509	500	0	489	39	22	
0	0	0	0	0	502	498	0	502	39	24	
1	0	0	0	0	504	490	0	500	39	27	
2	0	0	0	0	511	488	0	494	39	28	
3	0	0	0	0	512	492	0	497	39	29	
4	0	0	0	0	511	498	0	495	39	28	
5	0	0	0	0	506	502	0	491	39	26	
6	0	0	0	0	508	504	0	487	39	23	
7	0	0	0	0	507	505	0	483	39	22	
8	0	0	0	0	509	506	0	480	39	24	
9	0	0	0	0	506	504	0	477	39	26	
10	0	0	0	0	509	502	0	483	39	28	
11	0	0	0	0	510	502	0	508	39	29	
12	0	0	0	0	504	502	0	519	39	29	
13	0	0	0	0	507	501	0	515	39	27	
14	0	0	0	0	508	502	0	505	39	24	
15	0	0	0	0	506	503	0	497	39	22	
0	0	0	0	0	502	506	0	491	39	23	
1	0	0	0	0	513	507	0	505	39	25	
2	0	0	0	0	512	508	0	518	39	27	
3	0	0	0	0	508	509	0	517	39	29	
4	0	0	0	0	513	508	0	510	39	29	
5	0	0	0	0	513	512	0	503	39	27	
6	0	0	0	0	507	511	0	496	39	25	
7	0	0	0	0	508	505	0	490	39	22	
8	0	0	0	0	507	503	0	499	39	22	
9	0	0	0	0	505	505	0	518	39	24	
10	0	0	0	0	512	503	0	522	39	27	
11	0	0	0	0	511	499	0	519	39	28	
12	0	0	0	0	507	498	0	511	39	29	
13	0	0	0	0	502	499	0	504	39	28	
14	0	0	0	0	511	507	0	500	39	26	
15	0	0	0	0	514	512	0	496	39	23	
0	0	0	0	0	504	512	0	494	39	22	
1	0	0	0	0	512	511	0	508	39	24	
2	0	0	0	0	513	512	0	529	39	26	
3	0	0	0	0	506	507	0	532	39	28	
4	0	0	0	0	505	502	0	527	39	29	
5	0	0	0	0	502	497	0	520	39	29	
6	0	0	0	0	512	493	0	522	39	27	
7	0	0	0	0	506	492	0	531	39	24	
8	0	0	0	0	511	492	0	550	39	22	
9	0	0	0	0	510	493	0	550	39	23	
10	0	0	0	0	504	496	0	540	39	25	
11	0	0	0	0	504	502	0	527	39	27	
12	0	0	0	0	514	503	0	514	39	29	
13	0	0	0	0	511	499	0	505	39	29	
14	0	0	0	0	508	496	0	501	39	28	
15	0	0	0	0	506	499	0	497	39	25	
0	0	0	0	0	507	509	0	496	39	22	
1	0	0	0	0	503	518	0	504	39	22	
2	0	0	0	0	503	521	0	527	39	24	
3	0	0	0	0	507	516	0	534	39	27	
4	0	0	0	0	513	508	0	528	39	28	
5	0	0	0	0	510	503	0	520	39	29	
6	0	0	0	0	508	504	0	511	39	28	
7	0	0	0	0	508	507	0	511	39	26	
8	0	0	0	0	506	505	0	526	39	23	
9	0	0	0	0	508	504	0	531	39	22	
10	0	0	0	0	509	504	0	526	39	24	
11	0	0	0	0	510	504	0	518	39	26	
12	0	0	0	0	503	501	0	510	39	28	
13	0	0	0	0	509	500	0	504	39	29	
14	0	0	0	0	504	501	0	499	39	29	
15	0	0	0	0	508	501	0	495	39	27	
0	0	0	0	0	505	503	0	504	39	24	
1	0	0	0	0	517	504	0	522	39	22	
2	0	0	0	0	513	511	0	527	39	23	
3	0	0	0	0	507	515	0	522	39	25	
4	0	0	0	0	508	513	0	525	39	27	
5	0	0	0	0	504	513	0	522	39	29	
6	0	0	0	0	507	513	0	515	39	29	
7	0	0	0	0	511	505	0	508	39	28	
8	0	0	0	0	506	496	0	503	39	25	
9	0	0	0	0	508	498	0	498	39	22	
10	0	0	0	0	503	504	0	493	39	22	
11	0	0	0	0	503	508	0	491	39	24	
12	0	0	0	0	513	509	0	491	39	27	
13	0	0	0	0	506	510	0	512	39	28	
14	0	0	0	0	505	509	0	527	39	29	
15	0	0	0	0	508	507	0	540	39	28	
0	0	0	0	0	511	504	0	556	39	26	
1	0	0	0	0	517	499	0	550	39	23	
2	0	0	0	0	512	501	0	537	39	22	
3	0	0	0	0	513	508	0	521	39	24	
4	0	0	0	0	506	511	0	510	39	26	
5	0	0	0	0	511	510	0	503	39	28	
6	0	0	0	0	507	511	0	498	39	29	
7	0	0	0	0	504	510	0	494	39	29	
8	0	0	0	0	505	511	0	491	39	27	
9	0	0	0	0	505	510	0	501	39	24	
10	0	0	0	0	501	510	0	524	39	22	
11	0	0	0	0	507	508	0	530	39	23	
12	0	0	0	0	514	508	0	524	39	25	
13	0	0	0	0	512	509	0	515	39	27	
14	0	0	0	0	507	513	0	506	39	29	
15	0	0	0	0	509	516	0	505	39	29	
0	0	0	0	0	507	515	0	524	39	28	
1	0	0	0	0	500	514	0	529	39	25	
2	0	0	0	0	507	514	0	520	39	22	
3	0	0	0	0	512	516	0	520	39	22	
4	0	0	0	0	515	519	0	516	39	24	
5	0	0	0	0	509	519	0	509	39	27	
6	0	0	0	0	503	521	0	501	39	28	
7	0	0	0	0	512	520	0	493	39	29	
8	0	0	0	0	512	516	0	489	39	28	
9	0	0	0	0	505	512	0	492	39	26	
10	0	0	0	0	507	512	0	517	39	23	
11	0	0	0	0	516	516	0	527	39	22	
12	0	0	0	0	507	520	0	525	39	23	
13	0	0	0	0	509	520	0	516	39	26	
14	0	0	0	0	503	521	0	509	39	28	
15	0	0	0	0	509	523	0	501	39	29	
0	0	0	0	0	513	525	0	495	39	29	
1	0	0	0	0	504	524	0	508	39	27	
2	0	0	0	0	513	521	0	527	39	24	
3	0	0	0	0	508	527	0	528	39	22	
4	0	0	0	0	504	534	0	521	39	23	
5	0	0	0	0	511	536	0	511	39	25	
6	0	0	0	0	506	533	0	500	39	27	
7	0	0	0	0	507	527	0	505	39	29	
8	0	0	0	0	510	518	0	518	39	29	
9	0	0	0	0	508	511	0	515	39	28	
10	0	0	0	0	504	511	0	506	39	25	
11	0	0	0	0	510	512	0	497	39	22	
12	0	0	0	0	508	515	0	490	39	22	
13	0	0	0	0	507	520	0	485	39	24	
14	0	0	0	0	509	526	0	494	39	27	
15	0	0	0	0	506	529	0	492	39	28	
0	0	0	0	0	508	527	0	479	39	29	
1	0	0	0	0	509	520	0	492	39	28	
2	0	0	0	0	504	511	0	513	39	26	
3	0	0	0	0	511	504	0	520	39	23	
4	0	0	0	0	510	505	0	515	39	22	
5	0	0	0	0	510	508	0	518	39	23	
6	0	0	0	0	509	511	0	513	39	26	
7	0	0	0	0	510	517	0	512	39	28	
8	0	0	0	0	506	517	0	530	39	29	
9	0	0	0	0	510	515	0	534	39	29	
10	0	0	0	0	511	517	0	525	39	27	
11	0	0	0	0	503	521	0	512	39	24	
12	0	0	0	0	503	521	0	500	39	22	
13	0	0	0	0	500	519	0	492	39	23	
14	0	0	0	0	507	521	0	484	39	25	
15	0	0	0	0	506	523	0	477	39	27	
0	0	0	0	0	507	521	0	485	39	29	
1	0	0	0	0	516	520	0	502	39	29	
2	0	0	0	0	515	522	0	505	39	28	
3	0	0	0	0	512	520	0	500	39	25	
4	0	0	0	0	515	518	0	492	39	22	
5	0	0	0	0	510	515	0	484	39	22	
6	0	0	0	0	502	516	0	481	39	24	
7	0	0	0	0	504	515	0	478	39	27	
8	0	0	0	0	507	513	0	476	39	28	
9	0	0	0	0	505	510	0	489	39	29	
10	0	0	0	0	510	507	0	507	39	28	
11	0	0	0	0	505	502	0	508	39	26	
12	0	0	0	0	508	502	0	503	39	23	
13	0	0	0	0	508	506	0	495	39	22	
14	0	0	0	0	512	506	0	485	39	23	
15	0	0	0	0	508	505	0	490	39	26	
0	0	0	0	0	511	505	0	503	39	28	
1	0	0	0	0	507	506	0	505	39	29	
2	0	0	0	0	504	505	0	499	39	29	
3	0	0	0	0	511	504	0	504	39	27	
4	0	0	0	0	510	500	0	501	39	24	
5	0	0	0	0	509	499	0	497	39	22	
6	0	0	0	0	503	491	0	492	39	23	
7	0	0	0	0	511	487	0	490	39	25	
8	0	0	0	0	510	491	0	482	39	27	
9	0	0	0	0	505	496	0	477	39	29	
10	0	0	0	0	504	496	0	483	39	29	
11	0	0	0	0	508	497	0	524	39	28	
12	0	0	0	0	501	501	0	517	39	25	
13	0	0	0	0	506	500	0	513	39	22	
14	0	0	0	0	505	499	0	505	39	22	
15	0	0	0	0	508	497	0	499	39	24	
0	0	0	0	0	505	497	0	494	39	27	
1	0	0	0	0	511	500	0	508	39	28	
2	0	0	0	0	511	503	0	521	39	29	
3	0	0	0	0	503	503	0	518	39	28	
4	0	0	0	0	504	503	0	508	39	26	
5	0	0	0	0	511	504	0	499	39	23	
6	0	0	0	0	506	499	0	492	39	22	
7	0	0	0	0	515	499	0	502	39	23	
8	0	0	0	0	512	503	0	512	39	26	
9	0	0	0	0	505	502	0	508	39	28	
10	0	0	0	0	501	496	0	501	39	29	
11	0	0	0	0	508	491	0	494	39	29	
12	0	0	0	0	512	490	0	487	39	27	
13	0	0	0	0	503	490	0	484	39	24	
14	0	0	0	0	509	492	0	482	39	22	
15	0	0	0	0	504	495	0	480	39	23	
0	0	0	0	0	510	497	0	480	39	25	
1	0	0	0	0	505	497	0	497	39	27	
2	0	0	0	0	502	498	0	521	39	29	
3	0	0	0	0	511	503	0	526	39	29	
4	0	0	0	0	512	506	0	522	39	28	
5	0	0	0	0	503	508	0	523	39	25	
6	0	0	0	0	515	512	0	515	39	22	
7	0	0	0	0	507	513	0	517	39	22	
8	0	0	0	0	511	512	0	532	39	24	
9	0	0	0	0	506	511	0	530	39	27	
10	0	0	0	0	504	509	0	521	39	28	
11	0	0	0	0	508	509	0	508	39	29	
12	0	0	0	0	510	510	0	499	39	28	
13	0	0	0	0	501	507	0	492	39	26	
14	0	0	0	0	507	498	0	488	39	23	
15	0	0	0	0	510	497	0	484	39	22	
0	0	0	0	0	515	500	0	481	39	23	
1	0	0	0	0	514	502	0	492	39	26	
2	0	0	0	0	509	502	0	515	39	28	
3	0	0	0	0	504	501	0	521	39	29	
4	0	0	0	0	508	497	0	517	39	29	
5	0	0	0	0	507	499	0	507	39	27	
6	0	0	0	0	508	507	0	499	39	24	
7	0	0	0	0	507	509	0	497	39	22	
8	0	0	0	0	510	511	0	511	39	23	
9	0	0	0	0	504	518	0	515	39	25	
10	0	0	0	0	508	530	0	510	39	27	
11	0	0	0	0	505	540	0	501	39	29	
12	0	0	0	0	505	550	0	495	39	29	
13	0	0	0	0	504	568	0	490	39	28	
14	0	0	0	0	508	587	0	486	39	25	
15	0	0	0	0	502	603	0	484	39	22	
0	0	0	0	0	508	620	0	493	39	22	
1	0	0	0	0	509	640	0	512	39	24	
2	0	0	0	0	509	656	0	516	39	27	
3	0	0	0	0	506	670	0	513	39	28	
4	0	0	0	0	508	678	0	517	39	29	
5	0	0	0	0	507	683	0	514	39	28	
6	0	0	0	0	518	696	0	524	39	26	
7	0	0	0	0	515	711	0	515	39	23	
8	0	0	0	0	506	724	0	496	39	22	
9	0	0	0	0	507	736	0	492	39	23	
10	0	0	0	0	503	749	0	501	39	26	
11	0	0	0	0	506	761	0	530	39	28	
12	0	0	0	0	504	772	0	528	39	29	
13	0	0	0	0	517	781	0	523	39	29	
14	0	0	0	0	499	791	0	513	39	27	
15	0	0	0	0	512	788	0	504	39	24	
0	0	0	0	0	510	780	0	505	39	22	
1	0	0	0	0	506	780	0	524	39	23	
2	0	0	0	0	511	782	0	529	39	25	
3	0	0	0	0	506	778	0	524	39	27	
4	0	0	0	0	514	768	0	515	39	29	
5	0	0	0	0	504	751	0	509	39	29	
6	0	0	0	0	504	728	0	502	39	28	
7	0	0	0	0	508	705	0	496	39	25	
8	0	0	0	0	508	688	0	508	39	22	
9	0	0	0	0	510	672	0	521	39	22	
10	0	0	0	0	501	647	0	521	39	24	
11	0	0	0	0	503	623	0	515	39	27	
12	0	0	0	0	504	599	0	510	39	28	
13	0	0	0	0	510	571	0	504	39	29	
14	0	0	0	0	505	540	0	500	39	28	
15	0	0	0	0	510	510	0	496	39	26	
0	0	0	0	0	514	484	0	495	39	23	
1	0	0	0	0	505	454	0	514	39	22	
2	0	0	0	0	502	432	0	530	39	23	
3	0	0	0	0	508	425	0	529	39	26	
4	0	0	0	0	504	418	0	529	39	28	
5	0	0	0	0	512	413	0	530	39	29	
6	0	0	0	0	513	409	0	525	39	29	
7	0	0	0	0	503	409	0	534	39	27	
8	0	0	0	0	515	409	0	547	39	24	
9	0	0	0	0	512	412	0	544	39	22	
10	0	0	0	0	509	418	0	534	39	23	
11	0	0	0	0	508	418	0	523	39	25	
12	0	0	0	0	510	408	0	511	39	27	
13	0	0	0	0	504	399	0	504	39	29	
14	0	0	0	0	503	395	0	499	39	29	
15	0	0	0	0	513	391	0	497	39	28	
0	0	0	0	0	507	391	0	495	39	25	
1	0	0	0	0	509	392	0	511	39	22	
2	0	0	0	0	507	392	0	533	39	22	
3	0	0	0	0	503	392	0	543	39	24	
4	0	0	0	0	513	390	0	563	39	26	
5	0	0	0	0	509	391	0	567	39	28	
6	0	0	0	0	510	401	0	571	39	29	
7	0	0	0	0	499	408	0	571	39	28	
8	0	0	0	0	505	411	0	553	39	26	
9	0	0	0	0	507	414	0	535	39	23	
10	0	0	0	0	511	417	0	519	39	22	
11	0	0	0	0	510	418	0	507	39	23	
12	0	0	0	0	509	422	0	501	39	26	
13	0	0	0	0	513	423	0	511	39	28	
14	0	0	0	0	506	427	0	510	39	29	
15	0	0	0	0	504	433	0	492	39	29	
0	0	0	0	0	505	441	0	490	39	27	
1	0	0	0	0	515	448	0	499	39	24	
2	0	0	0	0	507	454	0	524	39	22	
3	0	0	0	0	513	452	0	532	39	23	
4	0	0	0	0	510	440	0	529	39	25	
5	0	0	0	0	506	423	0	532	39	27	
6	0	0	0	0	507	422	0	529	39	29	
7	0	0	0	0	506	428	0	528	39	29	
8	0	0	0	0	511	434	0	547	39	28	
9	0	0	0	0	503	438	0	552	39	25	
10	0	0	0	0	507	445	0	543	39	22	
11	0	0	0	0	509	451	0	531	39	22	
12	0	0	0	0	506	456	0	521	39	24	
13	0	0	0	0	508	461	0	512	39	26	
14	0	0	0	0	508	462	0	504	39	28	
15	0	0	0	0	507	460	0	500	39	29	
0	0	0	0	0	508	463	0	508	39	28	
1	0	0	0	0	508	464	0	526	39	26	
2	0	0	0	0	505	463	0	529	39	23	
3	0	0	0	0	507	462	0	524	39	22	
4	0	0	0	0	510	460	0	515	39	23	
5	0	0	0	0	511	455	0	507	39	26	
6	0	0	0	0	510	451	0	502	39	28	
7	0	0	0	0	510	452	0	497	39	29	
8	0	0	0	0	513	456	0	493	39	29	
9	0	0	0	0	511	460	0	507	39	27	
10	0	0	0	0	499	462	0	525	39	24	
11	0	0	0	0	502	466	0	526	39	22	
12	0	0	0	0	512	469	0	519	39	23	
13	0	0	0	0	503	470	0	510	39	25	
14	0	0	0	0	510	471	0	502	39	27	
15	0	0	0	0	507	471	0	505	39	29	
0	0	0	0	0	508	474	0	519	39	29	
1	0	0	0	0	507	477	0	519	39	28	
2	0	0	0	0	510	482	0	512	39	25	
3	0	0	0	0	504	484	0	513	39	22	
4	0	0	0	0	511	486	0	510	39	22	
5	0	0	0	0	505	483	0	504	39	24	
6	0	0	0	0	512	482	0	497	39	26	
7	0	0	0	0	511	480	0	490	39	28	
8	0	0	0	0	505	480	0	484	39	29	
9	0	0	0	0	506	482	0	480	39	28	
10	0	0	0	0	512	482	0	478	39	26	
11	0	0	0	0	504	482	0	476	39	23	
12	0	0	0	0	508	483	0	474	39	22	
13	0	0	0	0	512	485	0	473	39	23	
14	0	0	0	0	507	487	0	473	39	26	
15	0	0	0	0	511	488	0	473	39	28	
0	0	0	0	0	508	488	0	467	39	29	
1	0	0	0	0	508	487	0	462	39	29	
2	0	0	0	0	510	489	0	460	39	27	
3	0	0	0	0	501	492	0	461	39	24	
4	0	0	0	0	508	493	0	465	39	22	
5	0	0	0	0	509	492	0	467	39	23	
6	0	0	0	0	508	488	0	466	39	25	
7	0	0	0	0	509	490	0	464	39	27	
8	0	0	0	0	513	489	0	461	39	29	
9	0	0	0	0	510	487	0	456	39	29	
10	0	0	0	0	509	488	0	455	39	28	
11	0	0	0	0	512	494	0	456	39	25	
12	0	0	0	0	508	501	0	459	39	22	
13	0	0	0	0	508	504	0	460	39	22	
14	0	0	0	0	502	506	0	471	39	24	
15	0	0	0	0	503	504	0	495	39	26	
0	0	0	0	0	509	499	0	502	39	28	
1	0	0	0	0	511	498	0	496	39	29	
2	0	0	0	0	509	496	0	486	39	28	
3	0	0	0	0	512	492	0	485	39	26	
4	0	0	0	0	513	488	0	505	39	23	
5	0	0	0	0	507	489	0	512	39	22	
6	0	0	0	0	508	493	0	523	39	23	
7	0	0	0	0	509	499	0	531	39	26	
8	0	0	0	0	505	504	0	527	39	28	
9	0	0	0	0	504	499	0	540	39	29	
10	0	0	0	0	507	491	0	539	39	29	
11	0	0	0	0	511	486	0	542	39	27	
12	0	0	0	0	513	482	0	544	39	24	
13	0	0	0	0	505	486	0	538	39	22	
14	0	0	0	0	511	491	0	531	39	22	
15	0	0	0	0	507	497	0	537	39	25	
0	0	0	0	0	505	505	0	536	39	27	
1	0	0	0	0	508	504	0	524	39	29	
2	0	0	0	0	508	493	0	508	39	29	
3	0	0	0	0	504	490	0	492	39	28	
4	0	0	0	0	515	498	0	481	39	25	
5	0	0	0	0	509	502	0	473	39	22	
6	0	0	0	0	509	503	0	467	39	22	
7	0	0	0	0	503	501	0	463	39	24	
8	0	0	0	0	509	504	0	463	39	26	
9	0	0	0	0	506	508	0	481	39	28	
10	0	0	0	0	503	512	0	498	39	29	
11	0	0	0	0	510	513	0	498	39	28	
12	0	0	0	0	509	512	0	492	39	26	
13	0	0	0	0	505	516	0	486	39	23	
14	0	0	0	0	510	522	0	479	39	22	
15	0	0	0	0	513	526	0	474	39	23	
0	0	0	0	0	511	520	0	482	39	26	
1	0	0	0	0	517	497	0	497	39	28	
2	0	0	0	0	503	486	0	500	39	29	
3	0	0	0	0	506	487	0	496	39	29	
4	0	0	0	0	508	486	0	499	39	27	
5	0	0	0	0	507	486	0	496	39	24	
6	0	0	0	0	504	489	0	491	39	22	
7	0	0	0	0	510	494	0	484	39	22	
8	0	0	0	0	508	498	0	478	39	25	
9	0	0	0	0	510	501	0	472	39	27	
10	0	0	0	0	515	504	0	480	39	29	
11	0	0	0	0	506	506	0	502	39	29	
12	0	0	0	0	503	506	0	509	39	28	
13	0	0	0	0	502	507	0	504	39	25	
14	0	0	0	0	511	509	0	495	39	22	
15	0	0	0	0	508	513	0	487	39	22	
0	0	0	0	0	507	516	0	487	39	24	
1	0	0	0	0	503	520	0	507	39	26	
2	0	0	0	0	508	520	0	513	39	28	
3	0	0	0	0	510	522	0	509	39	29	
4	0	0	0	0	509	523	0	502	39	28	
5	0	0	0	0	504	520	0	494	39	26	
6	0	0	0	0	506	519	0	488	39	23	
7	0	0	0	0	513	520	0	484	39	22	
8	0	0	0	0	507	524	0	496	39	23	
9	0	0	0	0	514	526	0	509	39	26	
10	0	0	0	0	507	528	0	509	39	28	
11	0	0	0	0	511	530	0	504	39	29	
12	0	0	0	0	507	532	0	498	39	29	
13	0	0	0	0	508	535	0	491	39	27	
14	0	0	0	0	508	536	0	487	39	24	
15	0	0	0	0	507	539	0	485	39	22	
0	0	0	0	0	504	543	0	486	39	22	
1	0	0	0	0	504	548	0	507	39	25	
2	0	0	0	0	510	552	0	524	39	27	
3	0	0	0	0	509	549	0	525	39	29	
4	0	0	0	0	504	541	0	541	39	29	
5	0	0	0	0	510	539	0	533	39	28	
6	0	0	0	0	508	539	0	533	39	25	
7	0	0	0	0	511	538	0	508	39	22	
8	0	0	0	0	511	537	0	500	39	22	
9	0	0	0	0	506	536	0	495	39	24	
10	0	0	0	0	504	539	0	491	39	26	
11	0	0	0	0	504	544	0	488	39	28	
12	0	0	0	0	504	547	0	487	39	29	
13	0	0	0	0	508	549	0	487	39	28	
14	0	0	0	0	505	551	0	486	39	26	
15	0	0	0	0	512	553	0	485	39	23	
0	0	0	0	0	503	557	0	480	39	22	
1	0	0	0	0	507	555	0	478	39	23	
2	0	0	0	0	509	555	0	478	39	26	
3	0	0	0	0	515	556	0	480	39	28	
4	0	0	0	0	505	556	0	482	39	29	
5	0	0	0	0	508	558	0	483	39	29	
6	0	0	0	0	509	561	0	481	39	27	
7	0	0	0	0	515	561	0	479	39	24	
8	0	0	0	0	505	560	0	476	39	22	
9	0	0	0	0	505	558	0	473	39	22	
10	0	0	0	0	502	560	0	473	39	25	
11	0	0	0	0	505	562	0	476	39	27	
12	0	0	0	0	510	562	0	482	39	29	
13	0	0	0	0	510	559	0	490	39	29	
14	0	0	0	0	507	555	0	518	39	28	
15	0	0	0	0	499	554	0	528	39	25	
0	0	0	0	0	510	553	0	543	39	22	
1	0	0	0	0	514	551	0	559	39	22	
2	0	0	0	0	508	556	0	562	39	24	
3	0	0	0	0	508	561	0	574	39	26	
4	0	0	0	0	513	567	0	571	39	28	
5	0	0	0	0	509	569	0	586	39	29	
6	0	0	0	0	510	571	0	583	39	28	
7	0	0	0	0	509	574	0	575	39	26	
8	0	0	0	0	507	573	0	597	39	23	
9	0	0	0	0	509	571	0	576	39	22	
10	0	0	0	0	499	568	0	570	39	23	
11	0	0	0	0	508	566	0	556	39	25	
12	0	0	0	0	515	566	0	541	39	28	
13	0	0	0	0	512	567	0	529	39	29	
14	0	0	0	0	509	561	0	520	39	29	
15	0	0	0	0	507	553	0	513	39	27	
0	0	0	0	0	505	551	0	509	39	24	
1	0	0	0	0	510	552	0	513	39	22	
2	0	0	0	0	504	554	0	537	39	22	
3	0	0	0	0	502	555	0	547	39	25	
4	0	0	0	0	511	553	0	544	39	27	
5	0	0	0	0	509	555	0	546	39	29	
6	0	0	0	0	512	556	0	530	39	29	
7	0	0	0	0	512	555	0	525	39	28	
8	0	0	0	0	510	553	0	521	39	25	
9	0	0	0	0	512	552	0	535	39	22	
10	0	0	0	0	508	550	0	556	39	22	
11	0	0	0	0	510	547	0	558	39	24	
12	0	0	0	0	508	543	0	553	39	26	
13	0	0	0	0	508	543	0	539	39	28	
14	0	0	0	0	511	543	0	530	39	29	
15	0	0	0	0	509	540	0	533	39	28	
0	0	0	0	0	507	534	0	544	39	26	
1	0	0	0	0	504	528	0	541	39	23	
2	0	0	0	0	504	528	0	535	39	22	
3	0	0	0	0	505	529	0	536	39	23	
4	0	0	0	0	510	530	0	531	39	25	
5	0	0	0	0	506	528	0	524	39	28	
6	0	0	0	0	507	524	0	518	39	29	
7	0	0	0	0	505	520	0	514	39	29	
8	0	0	0	0	504	518	0	511	39	27	
9	0	0	0	0	508	518	0	508	39	24	
10	0	0	0	0	510	519	0	515	39	22	
11	0	0	0	0	509	518	0	540	39	22	
12	0	0	0	0	511	512	0	550	39	25	
13	0	0	0	0	504	500	0	544	39	27	
14	0	0	0	0	507	490	0	533	39	29	
15	0	0	0	0	510	483	0	524	39	29	
0	0	0	0	0	506	479	0	519	39	28	
1	0	0	0	0	511	476	0	535	39	25	
2	0	0	0	0	510	468	0	548	39	22	
3	0	0	0	0	508	465	0	557	39	22	
4	0	0	0	0	509	466	0	573	39	24	
5	0	0	0	0	502	465	0	573	39	26	
6	0	0	0	0	507	456	0	580	39	28	
7	0	0	0	0	506	455	0	575	39	29	
8	0	0	0	0	515	458	0	557	39	28	
9	0	0	0	0	519	460	0	538	39	26	
10	0	0	0	0	511	459	0	523	39	23	
11	0	0	0	0	508	455	0	511	39	22	
12	0	0	0	0	510	448	0	502	39	23	
13	0	0	0	0	506	446	0	497	39	25	
14	0	0	0	0	504	449	0	495	39	27	
15	0	0	0	0	506	449	0	494	39	29	
0	0	0	0	0	508	447	0	495	39	29	
1	0	0	0	0	512	444	0	511	39	27	
2	0	0	0	0	506	441	0	534	39	24	
3	0	0	0	0	501	442	0	539	39	22	
4	0	0	0	0	508	445	0	536	39	22	
5	0	0	0	0	508	450	0	538	39	25	
6	0	0	0	0	510	454	0	531	39	27	
7	0	0	0	0	509	454	0	534	39	29	
8	0	0	0	0	510	451	0	547	39	29	
9	0	0	0	0	512	449	0	544	39	28	
10	0	0	0	0	504	448	0	535	39	25	
11	0	0	0	0	507	447	0	524	39	22	
12	0	0	0	0	515	446	0	515	39	22	
13	0	0	0	0	504	445	0	509	39	24	
14	0	0	0	0	511	447	0	504	39	26	
15	0	0	0	0	507	445	0	502	39	28	
0	0	0	0	0	504	442	0	497	39	29	
1	0	0	0	0	507	445	0	505	39	28	
2	0	0	0	0	508	448	0	527	39	26	
3	0	0	0	0	504	442	0	533	39	23	
4	0	0	0	0	512	440	0	529	39	22	
5	0	0	0	0	507	444	0	520	39	23	
6	0	0	0	0	508	449	0	512	39	25	
7	0	0	0	0	504	452	0	512	39	27	
8	0	0	0	0	510	455	0	529	39	29	
9	0	0	0	0	507	459	0	535	39	29	
10	0	0	0	0	508	460	0	529	39	27	
11	0	0	0	0	509	454	0	522	39	24	
12	0	0	0	0	508	447	0	515	39	22	
13	0	0	0	0	512	444	0	508	39	22	
14	0	0	0	0	515	449	0	502	39	25	
15	0	0	0	0	508	453	0	499	39	27	
0	0	0	0	0	504	454	0	509	39	29	
1	0	0	0	0	505	452	0	528	39	29	
2	0	0	0	0	504	448	0	533	39	28	
3	0	0	0	0	512	446	0	529	39	25	
4	0	0	0	0	503	449	0	532	39	23	
5	0	0	0	0	507	452	0	527	39	22	
6	0	0	0	0	514	458	0	520	39	24	
7	0	0	0	0	509	463	0	513	39	26	
8	0	0	0	0	508	462	0	505	39	28	
9	0	0	0	0	511	460	0	498	39	29	
10	0	0	0	0	512	461	0	507	39	29	
11	0	0	0	0	511	461	0	527	39	26	
12	0	0	0	0	503	460	0	534	39	23	
13	0	0	0	0	504	456	0	528	39	22	
14	0	0	0	0	510	458	0	519	39	23	
15	0	0	0	0	505	463	0	509	39	25	
0	0	0	0	0	505	467	0	502	39	27	
1	0	0	0	0	514	465	0	498	39	29	
2	0	0	0	0	508	463	0	518	39	29	
3	0	0	0	0	508	457	0	531	39	27	
4	0	0	0	0	504	457	0	529	39	24	
5	0	0	0	0	508	460	0	523	39	22	
6	0	0	0	0	511	464	0	513	39	22	
7	0	0	0	0	512	467	0	504	39	25	
8	0	0	0	0	514	469	0	513	39	27	
9	0	0	0	0	510	467	0	524	39	29	
10	0	0	0	0	507	463	0	521	39	29	
11	0	0	0	0	507	465	0	518	39	28	
12	0	0	0	0	507	469	0	509	39	25	
13	0	0	0	0	512	473	0	499	39	23	
14	0	0	0	0	508	475	0	496	39	22	
15	0	0	0	0	511	471	0	494	39	24	
0	0	0	0	0	504	471	0	493	39	26	
1	0	0	0	0	510	473	0	511	39	28	
2	0	0	0	0	508	470	0	527	39	29	
3	0	0	0	0	504	465	0	526	39	29	
4	0	0	0	0	508	465	0	519	39	26	
5	0	0	0	0	506	469	0	512	39	23	
6	0	0	0	0	508	468	0	515	39	22	
7	0	0	0	0	510	470	0	509	39	23	
8	0	0	0	0	508	477	0	514	39	25	
9	0	0	0	0	502	480	0	529	39	28	
10	0	0	0	0	507	476	0	530	39	29	
11	0	0	0	0	511	474	0	521	39	29	
12	0	0	0	0	512	480	0	509	39	27	
13	0	0	0	0	509	483	0	500	39	24	
14	0	0	0	0	504	479	0	492	39	22	
15	0	0	0	0	502	475	0	488	39	22	
0	0	0	0	0	512	472	0	485	39	25	
1	0	0	0	0	499	473	0	500	39	27	
2	0	0	0	0	508	468	0	520	39	29	
3	0	0	0	0	508	466	0	523	39	29	
4	0	0	0	0	508	467	0	517	39	28	
5	0	0	0	0	516	469	0	509	39	25	
6	0	0	0	0	511	472	0	500	39	23	
7	0	0	0	0	511	474	0	492	39	22	
8	0	0	0	0	512	476	0	484	39	24	
9	0	0	0	0	499	477	0	479	39	26	
10	0	0	0	0	505	476	0	497	39	28	
11	0	0	0	0	509	472	0	513	39	29	
12	0	0	0	0	519	471	0	513	39	29	
13	0	0	0	0	511	476	0	507	39	26	
14	0	0	0	0	510	482	0	500	39	24	
15	0	0	0	0	509	485	0	494	39	22	
0	0	0	0	0	505	486	0	502	39	23	
1	0	0	0	0	512	486	0	514	39	25	
2	0	0	0	0	511	481	0	514	39	28	
3	0	0	0	0	501	475	0	511	39	29	
4	0	0	0	0	508	473	0	513	39	29	
5	0	0	0	0	502	477	0	508	39	27	
6	0	0	0	0	510	482	0	501	39	25	
7	0	0	0	0	512	487	0	494	39	22	
8	0	0	0	0	505	491	0	489	39	22	
9	0	0	0	0	505	494	0	485	39	25	
10	0	0	0	0	502	497	0	499	39	27	
11	0	0	0	0	507	498	0	520	39	29	
12	0	0	0	0	510	498	0	523	39	29	
13	0	0	0	0	508	497	0	516	39	28	
14	0	0	0	0	505	497	0	505	39	26	
15	0	0	0	0	511	496	0	502	39	23	
0	0	0	0	0	510	495	0	489	39	22	
1	0	0	0	0	504	490	0	489	39	24	
2	0	0	0	0	512	485	0	511	39	26	
3	0	0	0	0	509	484	0	519	39	28	
4	0	0	0	0	509	486	0	515	39	29	
5	0	0	0	0	504	489	0	508	39	29	
6	0	0	0	0	509	493	0	500	39	27	
7	0	0	0	0	509	497	0	496	39	24	
8	0	0	0	0	512	498	0	509	39	22	
9	0	0	0	0	503	498	0	519	39	23	
10	0	0	0	0	510	499	0	527	39	26	
11	0	0	0	0	503	496	0	546	39	28	
12	0	0	0	0	514	497	0	547	39	29	
13	0	0	0	0	511	496	0	535	39	29	
14	0	0	0	0	508	496	0	536	39	27	
15	0	0	0	0	511	496	0	539	39	25	
0	0	0	0	0	503	485	0	528	39	22	
1	0	0	0	0	505	476	0	519	39	23	
2	0	0	0	0	510	481	0	519	39	25	
3	0	0	0	0	511	487	0	512	39	27	
4	0	0	0	0	512	487	0	504	39	29	
5	0	0	0	0	507	482	0	499	39	29	
6	0	0	0	0	503	481	0	495	39	28	
7	0	0	0	0	507	484	0	494	39	26	
8	0	0	0	0	509	487	0	492	39	23	
9	0	0	0	0	506	490	0	491	39	22	
10	0	0	0	0	511	492	0	491	39	24	
11	0	0	0	0	506	494	0	491	39	26	
12	0	0	0	0	504	494	0	492	39	28	
13	0	0	0	0	508	492	0	509	39	29	
14	0	0	0	0	509	492	0	529	39	29	
15	0	0	0	0	501	489	0	532	39	27	
0	0	0	0	0	504	487	0	528	39	24	
1	0	0	0	0	512	491	0	543	39	22	
2	0	0	0	0	506	494	0	552	39	23	
3	0	0	0	0	512	491	0	546	39	26	
4	0	0	0	0	505	488	0	535	39	28	
5	0	0	0	0	510	488	0	523	39	29	
6	0	0	0	0	514	496	0	515	39	29	
7	0	0	0	0	504	498	0	507	39	28	
8	0	0	0	0	508	498	0	516	39	25	
9	0	0	0	0	507	502	0	528	39	22	
10	0	0	0	0	514	504	0	530	39	23	
11	0	0	0	0	508	505	0	526	39	25	
12	0	0	0	0	511	503	0	518	39	27	
13	0	0	0	0	505	501	0	510	39	29	
14	0	0	0	0	505	504	0	507	39	30	
15	0	0	0	0	507	505	0	505	39	28	
0	0	0	0	0	510	509	0	503	39	26	
1	0	0	0	0	514	510	0	518	39	23	
2	0	0	0	0	513	502	0	539	39	22	
3	0	0	0	0	506	489	0	542	39	24	
4	0	0	0	0	504	488	0	539	39	26	
5	0	0	0	0	510	494	0	540	39	28	
6	0	0	0	0	505	499	0	532	39	29	
7	0	0	0	0	505	502	0	535	39	29	
8	0	0	0	0	511	505	0	552	39	27	
9	0	0	0	0	509	506	0	552	39	24	
10	0	0	0	0	513	504	0	542	39	22	
11	0	0	0	0	505	504	0	530	39	23	
12	0	0	0	0	514	505	0	519	39	26	
13	0	0	0	0	503	499	0	512	39	28	
14	0	0	0	0	503	493	0	506	39	29	
15	0	0	0	0	503	487	0	504	39	29	
0	0	0	0	0	507	489	0	502	39	28	
1	0	0	0	0	505	493	0	513	39	25	
2	0	0	0	0	514	493	0	537	39	22	
3	0	0	0	0	511	492	0	545	39	23	
4	0	0	0	0	514	496	0	541	39	25	
5	0	0	0	0	506	499	0	533	39	27	
6	0	0	0	0	506	499	0	524	39	29	
7	0	0	0	0	509	497	0	524	39	30	
8	0	0	0	0	511	496	0	542	39	28	
9	0	0	0	0	511	497	0	548	39	26	
10	0	0	0	0	513	500	0	543	39	23	
11	0	0	0	0	501	502	0	536	39	22	
12	0	0	0	0	509	507	0	529	39	24	
13	0	0	0	0	502	508	0	524	39	26	
14	0	0	0	0	505	508	0	517	39	28	
15	0	0	0	0	505	512	0	513	39	29	
0	0	0	0	0	506	516	0	509	39	29	
1	0	0	0	0	509	516	0	510	39	27	
2	0	0	0	0	504	513	0	533	39	24	
3	0	0	0	0	511	510	0	543	39	22	
4	0	0	0	0	508	509	0	540	39	23	
5	0	0	0	0	509	508	0	531	39	25	
6	0	0	0	0	506	510	0	523	39	28	
7	0	0	0	0	511	510	0	518	39	29	
8	0	0	0	0	510	508	0	536	39	29	
9	0	0	0	0	510	510	0	550	39	28	
10	0	0	0	0	508	511	0	547	39	25	
11	0	0	0	0	506	511	0	539	39	22	
12	0	0	0	0	505	514	0	529	39	23	
13	0	0	0	0	511	513	0	519	39	25	
14	0	0	0	0	506	513	0	510	39	27	
15	0	0	0	0	504	509	0	504	39	29	
0	0	0	0	0	512	504	0	501	39	30	
1	0	0	0	0	509	500	0	501	39	28	
2	0	0	0	0	508	499	0	522	39	26	
3	0	0	0	0	510	502	0	533	39	23	
4	0	0	0	0	503	501	0	530	39	22	
5	0	0	0	0	511	503	0	523	39	24	
6	0	0	0	0	511	504	0	514	39	26	
7	0	0	0	0	503	503	0	506	39	28	
8	0	0	0	0	506	505	0	515	39	29	
9	0	0	0	0	514	509	0	526	39	29	
10	0	0	0	0	505	511	0	526	39	27	
11	0	0	0	0	506	513	0	520	39	24	
12	0	0	0	0	506	513	0	514	39	22	
13	0	0	0	0	509	517	0	511	39	23	
14	0	0	0	0	505	519	0	511	39	25	
15	0	0	0	0	507	521	0	500	39	28	
0	0	0	0	0	511	522	0	513	39	29	
1	0	0	0	0	504	525	0	519	39	29	
2	0	0	0	0	504	520	0	532	39	28	
3	0	0	0	0	511	509	0	532	39	25	
4	0	0	0	0	505	500	0	529	39	22	
5	0	0	0	0	510	493	0	529	39	22	
6	0	0	0	0	510	491	0	520	39	25	
7	0	0	0	0	511	497	0	528	39	27	
8	0	0	0	0	511	506	0	540	39	29	
9	0	0	0	0	504	509	0	535	39	29	
10	0	0	0	0	505	510	0	525	39	28	
11	0	0	0	0	513	513	0	512	39	26	
12	0	0	0	0	513	514	0	501	39	23	
13	0	0	0	0	508	508	0	495	39	22	
14	0	0	0	0	507	505	0	491	39	24	
15	0	0	0	0	505	507	0	488	39	26	
0	0	0	0	0	502	511	0	485	39	28	
1	0	0	0	0	509	515	0	483	39	29	
2	0	0	0	0	512	515	0	494	39	29	
3	0	0	0	0	511	518	0	519	39	27	
4	0	0	0	0	509	519	0	526	39	24	
5	0	0	0	0	508	519	0	521	39	22	
6	0	0	0	0	509	522	0	529	39	23	
7	0	0	0	0	511	526	0	534	39	25	
8	0	0	0	0	514	523	0	524	39	28	
9	0	0	0	0	509	517	0	515	39	29	
10	0	0	0	0	510	513	0	503	39	29	
11	0	0	0	0	505	516	0	495	39	28	
12	0	0	0	0	505	517	0	489	39	25	
13	0	0	0	0	506	510	0	487	39	22	
14	0	0	0	0	508	501	0	484	39	22	
15	0	0	0	0	511	497	0	483	39	25	
0	0	0	0	0	506	497	0	482	39	27	
1	0	0	0	0	504	501	0	492	39	29	
2	0	0	0	0	508	505	0	515	39	29	
3	0	0	0	0	501	508	0	522	39	28	
4	0	0	0	0	509	510	0	517	39	26	
5	0	0	0	0	508	513	0	518	39	23	
6	0	0	0	0	505	514	0	512	39	22	
7	0	0	0	0	504	514	0	511	39	24	
8	0	0	0	0	508	512	0	528	39	26	
9	0	0	0	0	508	512	0	533	39	28	
10	0	0	0	0	511	514	0	524	39	29	
11	0	0	0	0	511	515	0	513	39	29	
12	0	0	0	0	503	512	0	518	39	27	
13	0	0	0	0	504	509	0	511	39	24	
14	0	0	0	0	504	508	0	514	39	22	
15	0	0	0	0	506	513	0	532	39	23	
0	0	0	0	0	507	517	0	514	39	25	
1	0	0	0	0	515	513	0	505	39	28	
2	0	0	0	0	503	513	0	495	39	29	
3	0	0	0	0	508	515	0	487	39	29	
4	0	0	0	0	514	518	0	497	39	28	
5	0	0	0	0	507	520	0	513	39	25	
6	0	0	0	0	507	519	0	518	39	22	
7	0	0	0	0	502	520	0	535	39	22	
8	0	0	0	0	506	520	0	536	39	25	
9	0	0	0	0	513	522	0	521	39	27	
10	0	0	0	0	511	521	0	505	39	29	
11	0	0	0	0	510	520	0	493	39	29	
12	0	0	0	0	510	518	0	484	39	28	
13	0	0	0	0	504	519	0	478	39	26	
14	0	0	0	0	512	523	0	473	39	23	
15	0	0	0	0	504	525	0	471	39	22	
0	0	0	0	0	510	526	0	476	39	24	
1	0	0	0	0	510	526	0	497	39	26	
2	0	0	0	0	502	526	0	504	39	28	
3	0	0	0	0	502	527	0	499	39	29	
4	0	0	0	0	508	530	0	500	39	29	
5	0	0	0	0	506	534	0	499	39	27	
6	0	0	0	0	507	533	0	494	39	24	
7	0	0	0	0	515	532	0	488	39	22	
8	0	0	0	0	510	531	0	482	39	23	
9	0	0	0	0	513	530	0	488	39	25	
10	0	0	0	0	515	523	0	509	39	27	
11	0	0	0	0	510	521	0	513	39	29	
12	0	0	0	0	507	523	0	507	39	29	
13	0	0	0	0	503	526	0	497	39	28	
14	0	0	0	0	510	528	0	490	39	25	
15	0	0	0	0	511	528	0	486	39	22	
0	0	0	0	0	508	529	0	484	39	22	
1	0	0	0	0	510	531	0	501	39	25	
2	0	0	0	0	507	536	0	514	39	27	
3	0	0	0	0	508	536	0	511	39	29	
4	0	0	0	0	502	528	0	503	39	29	
5	0	0	0	0	507	519	0	494	39	28	
6	0	0	0	0	511	513	0	488	39	26	
7	0	0	0	0	502	510	0	500	39	23	
8	0	0	0	0	503	513	0	513	39	22	
9	0	0	0	0	508	517	0	510	39	24	
10	0	0	0	0	514	521	0	504	39	26	
11	0	0	0	0	512	524	0	497	39	28	
12	0	0	0	0	507	523	0	492	39	29	
13	0	0	0	0	502	526	0	488	39	29	
14	0	0	0	0	508	534	0	488	39	27	
15	0	0	0	0	510	540	0	488	39	24	
0	0	0	0	0	511	543	0	488	39	22	
1	0	0	0	0	510	543	0	503	39	23	
2	0	0	0	0	503	543	0	526	39	25	
3	0	0	0	0	506	539	0	530	39	27	
4	0	0	0	0	509	537	0	524	39	29	
5	0	0	0	0	512	540	0	513	39	29	
6	0	0	0	0	501	543	0	513	39	28	
7	0	0	0	0	515	544	0	521	39	25	
8	0	0	0	0	515	543	0	538	39	22	
9	0	0	0	0	502	541	0	537	39	22	
10	0	0	0	0	506	539	0	527	39	24	
11	0	0	0	0	505	544	0	515	39	27	
12	0	0	0	0	506	549	0	506	39	29	
13	0	0	0	0	511	548	0	500	39	29	
14	0	0	0	0	508	537	0	495	39	28	
15	0	0	0	0	508	526	0	490	39	26	
0	0	0	0	0	512	517	0	488	39	23	
1	0	0	0	0	514	515	0	497	39	22	
2	0	0	0	0	508	517	0	520	39	24	
3	0	0	0	0	507	520	0	525	39	26	
4	0	0	0	0	503	520	0	519	39	28	
5	0	0	0	0	508	515	0	508	39	29	
6	0	0	0	0	504	510	0	498	39	29	
7	0	0	0	0	509	508	0	496	39	27	
8	0	0	0	0	508	507	0	511	39	24	
9	0	0	0	0	513	506	0	514	39	22	
10	0	0	0	0	510	505	0	508	39	23	
11	0	0	0	0	508	503	0	500	39	25	
12	0	0	0	0	498	499	0	494	39	27	
13	0	0	0	0	504	496	0	488	39	29	
14	0	0	0	0	511	499	0	483	39	29	
15	0	0	0	0	512	502	0	480	39	28	
0	0	0	0	0	505	505	0	489	39	25	
1	0	0	0	0	508	506	0	508	39	23	
2	0	0	0	0	508	508	0	514	39	22	
3	0	0	0	0	504	504	0	533	39	24	
4	0	0	0	0	511	500	0	542	39	27	
5	0	0	0	0	515	498	0	533	39	29	
6	0	0	0	0	510	499	0	527	39	30	
7	0	0	0	0	511	501	0	540	39	28	
8	0	0	0	0	508	503	0	541	39	26	
9	0	0	0	0	505	504	0	528	39	23	
10	0	0	0	0	507	507	0	515	39	22	
11	0	0	0	0	507	508	0	505	39	24	
12	0	0	0	0	507	510	0	498	39	26	
13	0	0	0	0	509	513	0	502	39	28	
14	0	0	0	0	508	512	0	496	39	29	
15	0	0	0	0	507	513	0	487	39	29	
0	0	0	0	0	503	513	0	494	39	27	
1	0	0	0	0	509	509	0	515	39	24	
2	0	0	0	0	506	503	0	526	39	22	
3	0	0	0	0	509	499	0	524	39	23	
4	0	0	0	0	505	492	0	517	39	25	
5	0	0	0	0	508	492	0	510	39	27	
6	0	0	0	0	510	496	0	504	39	29	
7	0	0	0	0	519	497	0	498	39	29	
8	0	0	0	0	513	495	0	511	39	28	
9	0	0	0	0	510	492	0	525	39	25	
10	0	0	0	0	504	492	0	526	39	23	
11	0	0	0	0	503	489	0	521	39	22	
12	0	0	0	0	503	489	0	515	39	24	
13	0	0	0	0	510	492	0	508	39	27	
14	0	0	0	0	510	494	0	509	39	29	
15	0	0	0	0	512	493	0	502	39	30	
0	0	0	0	0	507	494	0	501	39	29	
1	0	0	0	0	511	499	0	520	39	26	
2	0	0	0	0	506	505	0	537	39	23	
3	0	0	0	0	512	507	0	542	39	22	
4	0	0	0	0	505	505	0	553	39	24	
5	0	0	0	0	513	504	0	537	39	26	
6	0	0	0	0	508	506	0	548	39	28	
7	0	0	0	0	501	511	0	554	39	29	
8	0	0	0	0	505	514	0	552	39	29	
9	0	0	0	0	505	515	0	554	39	27	
10	0	0	0	0	504	514	0	541	39	24	
11	0	0	0	0	505	511	0	530	39	22	
12	0	0	0	0	510	511	0	519	39	23	
13	0	0	0	0	505	510	0	511	39	25	
14	0	0	0	0	507	508	0	507	39	27	
15	0	0	0	0	504	506	0	503	39	29	
0	0	0	0	0	505	509	0	501	39	29	
1	0	0	0	0	502	512	0	516	39	28	
2	0	0	0	0	514	518	0	537	39	25	
3	0	0	0	0	514	524	0	540	39	23	
4	0	0	0	0	508	529	0	534	39	22	
5	0	0	0	0	508	539	0	524	39	24	
6	0	0	0	0	512	543	0	513	39	27	
7	0	0	0	0	511	552	0	515	39	28	
8	0	0	0	0	508	569	0	527	39	29	
9	0	0	0	0	504	584	0	524	39	29	
10	0	0	0	0	503	600	0	516	39	26	
11	0	0	0	0	512	605	0	507	39	23	
12	0	0	0	0	511	614	0	499	39	22	
13	0	0	0	0	511	627	0	493	39	24	
14	0	0	0	0	502	648	0	488	39	26	
15	0	0	0	0	505	667	0	487	39	28	
0	0	0	0	0	508	683	0	484	39	29	
1	0	0	0	0	513	703	0	494	39	29	
2	0	0	0	0	507	722	0	519	39	27	
3	0	0	0	0	510	735	0	527	39	24	
4	0	0	0	0	505	747	0	523	39	22	
5	0	0	0	0	510	757	0	524	39	23	
6	0	0	0	0	509	772	0	520	39	25	
7	0	0	0	0	506	788	0	518	39	27	
8	0	0	0	0	501	800	0	536	39	29	
9	0	0	0	0	510	807	0	540	39	29	
10	0	0	0	0	507	807	0	532	39	28	
11	0	0	0	0	509	807	0	520	39	25	
12	0	0	0	0	511	807	0	510	39	23	
13	0	0	0	0	506	806	0	500	39	22	
14	0	0	0	0	511	799	0	492	39	24	
15	0	0	0	0	514	787	0	487	39	27	
0	0	0	0	0	503	768	0	495	39	28	
1	0	0	0	0	507	747	0	511	39	29	
2	0	0	0	0	504	726	0	514	39	29	
3	0	0	0	0	511	707	0	510	39	26	
4	0	0	0	0	513	688	0	503	39	23	
5	0	0	0	0	504	669	0	494	39	22	
6	0	0	0	0	498	647	0	488	39	24	
7	0	0	0	0	507	624	0	485	39	26	
8	0	0	0	0	508	600	0	481	39	28	
9	0	0	0	0	507	570	0	495	39	29	
10	0	0	0	0	508	537	0	512	39	29	
11	0	0	0	0	512	511	0	512	39	27	
12	0	0	0	0	507	487	0	505	39	24	
13	0	0	0	0	507	462	0	495	39	22	
14	0	0	0	0	510	441	0	484	39	23	
15	0	0	0	0	505	427	0	487	39	25	
0	0	0	0	0	510	415	0	501	39	27	
1	0	0	0	0	513	411	0	499	39	29	
2	0	0	0	0	510	409	0	492	39	29	
3	0	0	0	0	506	408	0	494	39	28	
4	0	0	0	0	517	402	0	490	39	25	
5	0	0	0	0	513	396	0	484	39	23	
6	0	0	0	0	505	398	0	477	39	22	
7	0	0	0	0	505	405	0	471	39	24	
8	0	0	0	0	506	408	0	466	39	27	
9	0	0	0	0	501	403	0	462	39	28	
10	0	0	0	0	508	391	0	460	39	29	
11	0	0	0	0	509	388	0	457	39	29	
12	0	0	0	0	512	392	0	457	39	26	
13	0	0	0	0	504	393	0	455	39	23	
14	0	0	0	0	503	393	0	454	39	22	
15	0	0	0	0	506	395	0	453	39	23	
0	0	0	0	0	510	398	0	449	39	26	
1	0	0	0	0	505	403	0	444	39	28	
2	0	0	0	0	509	409	0	442	39	29	
3	0	0	0	0	513	412	0	444	39	29	
4	0	0	0	0	504	411	0	446	39	27	
5	0	0	0	0	513	410	0	451	39	24	
6	0	0	0	0	513	414	0	454	39	22	
7	0	0	0	0	508	419	0	452	39	23	
8	0	0	0	0	511	425	0	449	39	25	
9	0	0	0	0	507	430	0	445	39	27	
10	0	0	0	0	506	433	0	447	39	29	
11	0	0	0	0	507	433	0	448	39	29	
12	0	0	0	0	507	435	0	450	39	28	
13	0	0	0	0	504	439	0	452	39	25	
14	0	0	0	0	512	441	0	463	39	23	
15	0	0	0	0	502	440	0	486	39	22	
0	0	0	0	0	513	440	0	492	39	24	
1	0	0	0	0	508	442	0	489	39	27	
2	0	0	0	0	503	446	0	481	39	28	
3	0	0	0	0	508	448	0	481	39	29	
4	0	0	0	0	506	450	0	504	39	29	
5	0	0	0	0	512	452	0	512	39	26	
6	0	0	0	0	510	451	0	524	39	23	
7	0	0	0	0	507	454	0	532	39	22	
8	0	0	0	0	516	456	0	526	39	23	
9	0	0	0	0	505	459	0	536	39	26	
10	0	0	0	0	509	464	0	534	39	28	
11	0	0	0	0	504	468	0	538	39	29	
12	0	0	0	0	508	467	0	540	39	29	
13	0	0	0	0	510	466	0	536	39	27	
14	0	0	0	0	510	464	0	528	39	24	
15	0	0	0	0	507	465	0	534	39	22	
0	0	0	0	0	508	468	0	535	39	23	
1	0	0	0	0	505	470	0	521	39	25	
2	0	0	0	0	513	470	0	505	39	27	
3	0	0	0	0	503	470	0	489	39	29	
4	0	0	0	0	507	471	0	478	39	29	
5	0	0	0	0	511	467	0	470	39	28	
6	0	0	0	0	507	465	0	463	39	25	
7	0	0	0	0	505	467	0	461	39	23	
8	0	0	0	0	511	474	0	460	39	22	
9	0	0	0	0	508	477	0	479	39	24	
10	0	0	0	0	511	479	0	493	39	27	
11	0	0	0	0	513	482	0	504	39	28	
12	0	0	0	0	511	482	0	523	39	29	
13	0	0	0	0	504	480	0	524	39	29	
14	0	0	0	0	504	479	0	533	39	26	
15	0	0	0	0	505	479	0	529	39	23	
0	0	0	0	0	504	476	0	523	39	22	
1	0	0	0	0	509	475	0	525	39	23	
2	0	0	0	0	508	476	0	515	39	26	
3	0	0	0	0	511	481	0	502	39	28	
4	0	0	0	0	507	486	0	487	39	29	
5	0	0	0	0	507	488	0	475	39	29	
6	0	0	0	0	511	489	0	474	39	27	
7	0	0	0	0	505	491	0	478	39	24	
8	0	0	0	0	503	486	0	476	39	22	
9	0	0	0	0	510	484	0	488	39	23	
10	0	0	0	0	513	483	0	504	39	25	
11	0	0	0	0	505	487	0	505	39	27	
12	0	0	0	0	511	495	0	499	39	29	
13	0	0	0	0	508	499	0	490	39	29	
14	0	0	0	0	508	499	0	481	39	28	
15	0	0	0	0	505	496	0	476	39	25	
0	0	0	0	0	516	496	0	478	39	23	
1	0	0	0	0	507	494	0	496	39	22	
2	0	0	0	0	512	491	0	504	39	24	
3	0	0	0	0	511	493	0	502	39	26	
4	0	0	0	0	506	494	0	496	39	28	
5	0	0	0	0	506	491	0	490	39	29	
6	0	0	0	0	508	487	0	486	39	29	
7	0	0	0	0	509	492	0	482	39	26	
8	0	0	0	0	511	500	0	495	39	23	
9	0	0	0	0	513	504	0	510	39	22	
10	0	0	0	0	509	504	0	511	39	23	
11	0	0	0	0	504	502	0	507	39	26	
12	0	0	0	0	511	492	0	501	39	28	
13	0	0	0	0	503	486	0	494	39	29	
14	0	0	0	0	507	486	0	489	39	29	
15	0	0	0	0	512	482	0	487	39	27	
0	0	0	0	0	507	483	0	487	39	24	
1	0	0	0	0	504	488	0	507	39	22	
2	0	0	0	0	507	492	0	524	39	23	
3	0	0	0	0	511	496	0	523	39	25	
4	0	0	0	0	511	494	0	523	39	27	
5	0	0	0	0	508	496	0	526	39	29	
6	0	0	0	0	504	496	0	530	39	29	
7	0	0	0	0	503	496	0	540	39	28	
8	0	0	0	0	503	502	0	550	39	25	
9	0	0	0	0	507	507	0	549	39	23	
10	0	0	0	0	504	508	0	560	39	22	
11	0	0	0	0	519	508	0	552	39	24	
12	0	0	0	0	512	510	0	537	39	26	
13	0	0	0	0	510	510	0	522	39	28	
14	0	0	0	0	504	508	0	509	39	29	
15	0	0	0	0	511	504	0	499	39	29	
0	0	0	0	0	512	509	0	494	39	26	
1	0	0	0	0	509	516	0	506	39	23	
2	0	0	0	0	506	521	0	527	39	22	
3	0	0	0	0	504	524	0	532	39	23	
4	0	0	0	0	501	524	0	526	39	26	
5	0	0	0	0	508	522	0	524	39	28	
6	0	0	0	0	512	514	0	523	39	29	
7	0	0	0	0	510	502	0	516	39	29	
8	0	0	0	0	509	500	0	526	39	27	
9	0	0	0	0	509	498	0	524	39	24	
10	0	0	0	0	503	496	0	517	39	22	
11	0	0	0	0	511	499	0	510	39	23	
12	0	0	0	0	507	499	0	503	39	25	
13	0	0	0	0	510	497	0	499	39	27	
14	0	0	0	0	510	496	0	497	39	29	
15	0	0	0	0	511	496	0	496	39	29	
0	0	0	0	0	513	499	0	494	39	28	
1	0	0	0	0	508	506	0	503	39	25	
2	0	0	0	0	508	511	0	529	39	23	
3	0	0	0	0	511	514	0	536	39	22	
4	0	0	0	0	510	516	0	533	39	24	
5	0	0	0	0	510	518	0	536	39	26	
6	0	0	0	0	499	517	0	532	39	28	
7	0	0	0	0	504	516	0	531	39	29	
8	0	0	0	0	512	516	0	550	39	29	
9	0	0	0	0	508	516	0	557	39	26	
10	0	0	0	0	513	518	0	550	39	23	
11	0	0	0	0	504	520	0	539	39	22	
12	0	0	0	0	506	522	0	530	39	23	
13	0	0	0	0	513	523	0	521	39	26	
14	0	0	0	0	514	528	0	513	39	28	
15	0	0	0	0	508	531	0	508	39	29	
0	0	0	0	0	504	530	0	505	39	29	
1	0	0	0	0	504	530	0	506	39	27	
2	0	0	0	0	510	532	0	531	39	24	
3	0	0	0	0	511	536	0	542	39	22	
4	0	0	0	0	517	536	0	540	39	23	
5	0	0	0	0	509	535	0	533	39	25	
6	0	0	0	0	503	536	0	527	39	27	
7	0	0	0	0	507	537	0	521	39	29	
8	0	0	0	0	508	539	0	536	39	29	
9	0	0	0	0	508	542	0	544	39	28	
10	0	0	0	0	507	545	0	553	39	25	
11	0	0	0	0	504	544	0	569	39	23	
12	0	0	0	0	508	542	0	571	39	22	
13	0	0	0	0	508	540	0	581	39	24	
14	0	0	0	0	510	540	0	582	39	26	
15	0	0	0	0	507	546	0	579	39	28	
0	0	0	0	0	513	546	0	582	39	29	
1	0	0	0	0	508	548	0	572	39	29	
2	0	0	0	0	502	551	0	575	39	26	
3	0	0	0	0	505	550	0	573	39	23	
4	0	0	0	0	508	547	0	560	39	22	
5	0	0	0	0	510	544	0	550	39	23	
6	0	0	0	0	506	543	0	544	39	26	
7	0	0	0	0	507	545	0	536	39	28	
8	0	0	0	0	505	548	0	542	39	29	
9	0	0	0	0	509	553	0	554	39	29	
10	0	0	0	0	504	558	0	549	39	27	
11	0	0	0	0	509	560	0	537	39	24	
12	0	0	0	0	512	559	0	524	39	22	
13	0	0	0	0	508	559	0	513	39	23	
14	0	0	0	0	505	557	0	506	39	25	
15	0	0	0	0	512	554	0	508	39	27	
0	0	0	0	0	506	557	0	527	39	29	
1	0	0	0	0	511	559	0	535	39	29	
2	0	0	0	0	510	561	0	529	39	28	
3	0	0	0	0	508	563	0	521	39	25	
4	0	0	0	0	508	564	0	514	39	23	
5	0	0	0	0	505	566	0	507	39	22	
6	0	0	0	0	501	560	0	502	39	24	
7	0	0	0	0	508	559	0	497	39	26	
8	0	0	0	0	506	561	0	507	39	28	
9	0	0	0	0	510	563	0	526	39	29	
10	0	0	0	0	511	564	0	530	39	29	
11	0	0	0	0	509	567	0	525	39	26	
12	0	0	0	0	508	572	0	519	39	23	
13	0	0	0	0	501	574	0	511	39	22	
14	0	0	0	0	512	568	0	508	39	23	
15	0	0	0	0	510	564	0	503	39	26	
0	0	0	0	0	512	563	0	502	39	28	
1	0	0	0	0	507	568	0	516	39	29	
2	0	0	0	0	515	574	0	537	39	29	
3	0	0	0	0	507	575	0	538	39	27	
4	0	0	0	0	504	575	0	534	39	24	
5	0	0	0	0	508	569	0	536	39	22	
6	0	0	0	0	502	571	0	528	39	23	
7	0	0	0	0	506	581	0	530	39	25	
8	0	0	0	0	509	582	0	545	39	27	
9	0	0	0	0	506	569	0	544	39	29	
10	0	0	0	0	511	561	0	534	39	29	
11	0	0	0	0	510	557	0	522	39	28	
12	0	0	0	0	507	556	0	511	39	25	
13	0	0	0	0	503	558	0	504	39	23	
14	0	0	0	0	511	561	0	498	39	22	
15	0	0	0	0	508	563	0	496	39	24	
0	0	0	0	0	512	562	0	494	39	26	
1	0	0	0	0	508	562	0	504	39	28	
2	0	0	0	0	512	561	0	529	39	29	
3	0	0	0	0	508	561	0	537	39	29	
4	0	0	0	0	512	561	0	570	39	26	
5	0	0	0	0	508	561	0	559	39	23	
6	0	0	0	0	506	557	0	557	39	22	
7	0	0	0	0	503	553	0	564	39	23	
8	0	0	0	0	512	551	0	554	39	26	
9	0	0	0	0	509	550	0	536	39	28	
10	0	0	0	0	511	548	0	520	39	29	
11	0	0	0	0	509	547	0	506	39	29	
12	0	0	0	0	505	545	0	496	39	27	
13	0	0	0	0	501	539	0	489	39	24	
14	0	0	0	0	503	535	0	487	39	22	
15	0	0	0	0	509	534	0	484	39	22	
0	0	0	0	0	508	532	0	492	39	25	
1	0	0	0	0	507	529	0	511	39	27	
2	0	0	0	0	509	528	0	516	39	29	
3	0	0	0	0	511	524	0	513	39	29	
4	0	0	0	0	504	519	0	516	39	28	
5	0	0	0	0	506	518	0	515	39	25	
6	0	0	0	0	510	513	0	510	39	23	
7	0	0	0	0	510	505	0	503	39	22	
8	0	0	0	0	512	498	0	497	39	24	
9	0	0	0	0	510	494	0	492	39	26	
10	0	0	0	0	507	496	0	502	39	28	
11	0	0	0	0	510	492	0	525	39	29	
12	0	0	0	0	504	485	0	531	39	29	
13	0	0	0	0	510	484	0	524	39	26	
14	0	0	0	0	508	484	0	515	39	23	
15	0	0	0	0	505	482	0	505	39	22	
0	0	0	0	0	508	480	0	498	39	23	
1	0	0	0	0	508	479	0	495	39	25	
2	0	0	0	0	503	475	0	512	39	28	
3	0	0	0	0	504	472	0	526	39	29	
4	0	0	0	0	512	470	0	524	39	29	
5	0	0	0	0	515	471	0	515	39	27	
6	0	0	0	0	508	474	0	519	39	24	
7	0	0	0	0	511	476	0	498	39	22	
8	0	0	0	0	511	472	0	507	39	22	
9	0	0	0	0	508	455	0	517	39	25	
10	0	0	0	0	504	442	0	516	39	27	
11	0	0	0	0	511	442	0	511	39	29	
12	0	0	0	0	511	446	0	502	39	29	
13	0	0	0	0	510	455	0	495	39	28	
14	0	0	0	0	506	456	0	488	39	25	
15	0	0	0	0	512	453	0	486	39	23	
0	0	0	0	0	505	451	0	485	39	22	
1	0	0	0	0	509	446	0	504	39	24	
2	0	0	0	0	510	447	0	519	39	26	
3	0	0	0	0	507	452	0	518	39	28	
4	0	0	0	0	510	459	0	518	39	29	
5	0	0	0	0	508	461	0	519	39	29	
6	0	0	0	0	511	460	0	512	39	26	
7	0	0	0	0	502	459	0	521	39	23	
8	0	0	0	0	509	459	0	534	39	22	
9	0	0	0	0	508	457	0	529	39	23	
10	0	0	0	0	504	459	0	519	39	25	
11	0	0	0	0	509	457	0	507	39	28	
12	0	0	0	0	511	455	0	496	39	29	
13	0	0	0	0	507	455	0	488	39	29	
14	0	0	0	0	508	453	0	484	39	27	
15	0	0	0	0	508	450	0	481	39	24	
0	0	0	0	0	507	448	0	479	39	22	
1	0	0	0	0	510	448	0	475	39	22	
2	0	0	0	0	516	450	0	473	39	25	
3	0	0	0	0	509	452	0	478	39	27	
4	0	0	0	0	503	452	0	504	39	29	
5	0	0	0	0	504	451	0	518	39	29	
6	0	0	0	0	505	452	0	531	39	28	
7	0	0	0	0	513	451	0	538	39	25	
8	0	0	0	0	506	446	0	526	39	23	
9	0	0	0	0	510	445	0	512	39	22	
10	0	0	0	0	511	447	0	501	39	24	
11	0	0	0	0	511	446	0	489	39	26	
12	0	0	0	0	506	448	0	482	39	28	
13	0	0	0	0	511	451	0	478	39	29	
14	0	0	0	0	503	453	0	476	39	29	
15	0	0	0	0	504	456	0	476	39	26	
0	0	0	0	0	511	461	0	475	39	24	
1	0	0	0	0	508	464	0	486	39	22	
2	0	0	0	0	506	465	0	509	39	23	
3	0	0	0	0	512	461	0	516	39	25	
4	0	0	0	0	507	459	0	511	39	28	
5	0	0	0	0	507	458	0	512	39	29	
6	0	0	0	0	507	461	0	509	39	29	
7	0	0	0	0	512	463	0	508	39	27	
8	0	0	0	0	504	460	0	527	39	24	
9	0	0	0	0	515	461	0	534	39	22	
10	0	0	0	0	513	458	0	526	39	22	
11	0	0	0	0	508	452	0	514	39	25	
12	0	0	0	0	517	446	0	504	39	27	
13	0	0	0	0	505	446	0	496	39	29	
14	0	0	0	0	504	454	0	491	39	29	
15	0	0	0	0	510	461	0	487	39	28	
0	0	0	0	0	504	467	0	496	39	26	
1	0	0	0	0	504	471	0	515	39	23	
2	0	0	0	0	508	473	0	521	39	22	
3	0	0	0	0	512	479	0	539	39	24	
4	0	0	0	0	516	485	0	546	39	26	
5	0	0	0	0	502	484	0	538	39	28	
6	0	0	0	0	508	482	0	531	39	29	
7	0	0	0	0	513	484	0	539	39	29	
8	0	0	0	0	504	486	0	535	39	27	
9	0	0	0	0	507	484	0	520	39	24	
10	0	0	0	0	504	481	0	508	39	22	
11	0	0	0	0	506	479	0	498	39	23	
12	0	0	0	0	508	475	0	492	39	25	
13	0	0	0	0	505	473	0	486	39	27	
14	0	0	0	0	512	469	0	481	39	29	
15	0	0	0	0	506	467	0	479	39	29	
0	0	0	0	0	504	467	0	484	39	27	
1	0	0	0	0	510	467	0	506	39	25	
2	0	0	0	0	508	471	0	518	39	22	
3	0	0	0	0	511	478	0	516	39	22	
4	0	0	0	0	511	485	0	518	39	25	
5	0	0	0	0	508	492	0	517	39	27	
6	0	0	0	0	508	497	0	511	39	29	
7	0	0	0	0	514	496	0	501	39	29	
8	0	0	0	0	508	489	0	494	39	28	
9	0	0	0	0	512	484	0	500	39	26	
10	0	0	0	0	504	484	0	521	39	23	
11	0	0	0	0	506	485	0	526	39	22	
12	0	0	0	0	507	479	0	521	39	24	
13	0	0	0	0	510	479	0	511	39	26	
14	0	0	0	0	519	479	0	503	39	28	
15	0	0	0	0	507	473	0	497	39	29	
0	0	0	0	0	507	470	0	494	39	29	
1	0	0	0	0	509	470	0	513	39	27	
2	0	0	0	0	503	475	0	527	39	24	
3	0	0	0	0	510	479	0	527	39	22	
4	0	0	0	0	506	483	0	520	39	23	
5	0	0	0	0	505	487	0	512	39	25	
6	0	0	0	0	513	492	0	504	39	27	
7	0	0	0	0	498	491	0	498	39	29	
8	0	0	0	0	507	491	0	502	39	29	
9	0	0	0	0	507	492	0	519	39	27	
10	0	0	0	0	504	487	0	523	39	25	
11	0	0	0	0	508	483	0	540	39	22	
12	0	0	0	0	504	486	0	545	39	22	
13	0	0	0	0	510	490	0	548	39	24	
14	0	0	0	0	507	493	0	554	39	27	
15	0	0	0	0	510	493	0	543	39	29	
0	0	0	0	0	508	492	0	547	39	29	
1	0	0	0	0	510	491	0	545	39	28	
2	0	0	0	0	513	496	0	531	39	26	
3	0	0	0	0	511	497	0	522	39	23	
4	0	0	0	0	513	495	0	519	39	22	
5	0	0	0	0	509	491	0	508	39	24	
6	0	0	0	0	508	488	0	499	39	26	
7	0	0	0	0	509	487	0	490	39	28	
8	0	0	0	0	514	487	0	485	39	29	
9	0	0	0	0	512	484	0	485	39	29	
10	0	0	0	0	507	483	0	504	39	27	
11	0	0	0	0	504	487	0	519	39	24	
12	0	0	0	0	511	492	0	518	39	22	
13	0	0	0	0	506	496	0	510	39	23	
14	0	0	0	0	503	494	0	500	39	25	
15	0	0	0	0	505	492	0	494	39	27	
0	0	0	0	0	504	490	0	488	39	29	
1	0	0	0	0	508	490	0	495	39	29	
2	0	0	0	0	507	488	0	516	39	28	
3	0	0	0	0	513	488	0	523	39	25	
4	0	0	0	0	514	487	0	519	39	22	
5	0	0	0	0	508	486	0	509	39	22	
6	0	0	0	0	513	489	0	502	39	25	
7	0	0	0	0	507	496	0	501	39	27	
8	0	0	0	0	512	499	0	518	39	29	
9	0	0	0	0	506	499	0	524	39	29	
10	0	0	0	0	510	499	0	519	39	28	
11	0	0	0	0	503	497	0	511	39	26	
12	0	0	0	0	507	497	0	503	39	23	
13	0	0	0	0	502	491	0	497	39	22	
14	0	0	0	0	502	489	0	493	39	24	
15	0	0	0	0	510	490	0	492	39	26	
0	0	0	0	0	508	493	0	502	39	28	
1	0	0	0	0	503	497	0	522	39	29	
2	0	0	0	0	507	500	0	528	39	29	
3	0	0	0	0	511	502	0	524	39	27	
4	0	0	0	0	509	501	0	518	39	24	
5	0	0	0	0	511	500	0	520	39	22	
6	0	0	0	0	511	501	0	522	39	23	
7	0	0	0	0	513	505	0	518	39	25	
8	0	0	0	0	511	509	0	534	39	27	
9	0	0	0	0	508	508	0	543	39	29	
10	0	0	0	0	508	501	0	536	39	29	
11	0	0	0	0	508	501	0	525	39	28	
12	0	0	0	0	504	503	0	514	39	25	
13	0	0	0	0	502	497	0	504	39	22	
14	0	0	0	0	505	499	0	496	39	22	
15	0	0	0	0	511	504	0	492	39	24	
0	0	0	0	0	513	507	0	490	39	27	
1	0	0	0	0	504	507	0	491	39	28	
2	0	0	0	0	507	507	0	512	39	29	
3	0	0	0	0	507	505	0	529	39	28	
4	0	0	0	0	514	503	0	529	39	26	
5	0	0	0	0	499	504	0	523	39	23	
6	0	0	0	0	512	506	0	514	39	22	
7	0	0	0	0	508	509	0	506	39	24	
8	0	0	0	0	506	512	0	515	39	26	
9	0	0	0	0	515	516	0	526	39	28	
10	0	0	0	0	507	521	0	524	39	29	
11	0	0	0	0	504	521	0	518	39	29	
12	0	0	0	0	506	518	0	510	39	27	
13	0	0	0	0	512	511	0	501	39	24	
14	0	0	0	0	511	506	0	497	39	22	
15	0	0	0	0	512	504	0	494	39	23	
0	0	0	0	0	514	505	0	494	39	25	
1	0	0	0	0	508	505	0	521	39	27	
2	0	0	0	0	511	503	0	533	39	29	
3	0	0	0	0	509	503	0	530	39	29	
4	0	0	0	0	504	504	0	528	39	28	
5	0	0	0	0	504	508	0	528	39	25	
6	0	0	0	0	505	510	0	520	39	22	
7	0	0	0	0	502	506	0	527	39	22	
8	0	0	0	0	514	500	0	538	39	24	
9	0	0	0	0	510	498	0	534	39	27	
10	0	0	0	0	507	497	0	523	39	28	
11	0	0	0	0	504	495	0	512	39	29	
12	0	0	0	0	508	492	0	501	39	28	
13	0	0	0	0	511	494	0	496	39	26	
14	0	0	0	0	513	497	0	493	39	23	
15	0	0	0	0	503	501	0	491	39	22	
0	0	0	0	0	511	504	0	491	39	24	
1	0	0	0	0	514	506	0	507	39	26	
2	0	0	0	0	509	505	0	531	39	28	
3	0	0	0	0	509	504	0	536	39	29	
4	0	0	0	0	510	506	0	530	39	29	
5	0	0	0	0	507	504	0	520	39	27	
6	0	0	0	0	505	499	0	520	39	24	
7	0	0	0	0	501	497	0	527	39	22	
8	0	0	0	0	509	500	0	541	39	23	
9	0	0	0	0	508	504	0	535	39	25	
10	0	0	0	0	507	507	0	523	39	27	
11	0	0	0	0	514	509	0	509	39	29	
12	0	0	0	0	507	509	0	501	39	29	
13	0	0	0	0	506	507	0	496	39	28	
14	0	0	0	0	511	504	0	492	39	25	
15	0	0	0	0	508	504	0	490	39	22	
0	0	0	0	0	508	508	0	488	39	22	
1	0	0	0	0	508	510	0	498	39	24	
2	0	0	0	0	509	509	0	524	39	27	
3	0	0	0	0	510	507	0	530	39	28	
4	0	0	0	0	502	504	0	526	39	29	
5	0	0	0	0	514	504	0	528	39	28	
6	0	0	0	0	511	502	0	525	39	26	
7	0	0	0	0	511	504	0	524	39	23	
8	0	0	0	0	504	509	0	542	39	22	
9	0	0	0	0	510	511	0	547	39	24	
10	0	0	0	0	510	505	0	536	39	26	
11	0	0	0	0	502	505	0	521	39	28	
12	0	0	0	0	508	510	0	510	39	29	
13	0	0	0	0	506	515	0	501	39	29	
14	0	0	0	0	508	520	0	493	39	27	
15	0	0	0	0	508	523	0	487	39	24	
0	0	0	0	0	508	520	0	495	39	22	
1	0	0	0	0	510	510	0	511	39	23	
2	0	0	0	0	509	502	0	515	39	25	
3	0	0	0	0	513	502	0	532	39	27	
4	0	0	0	0	510	505	0	538	39	29	
5	0	0	0	0	505	509	0	540	39	29	
6	0	0	0	0	510	514	0	550	39	28	
7	0	0	0	0	506	520	0	540	39	25	
8	0	0	0	0	506	521	0	544	39	22	
9	0	0	0	0	510	520	0	543	39	22	
10	0	0	0	0	505	520	0	529	39	24	
11	0	0	0	0	508	511	0	514	39	27	
12	0	0	0	0	504	504	0	502	39	28	
13	0	0	0	0	511	503	0	490	39	29	
14	0	0	0	0	502	503	0	481	39	28	
15	0	0	0	0	506	507	0	476	39	26	
0	0	0	0	0	508	507	0	478	39	23	
1	0	0	0	0	510	509	0	499	39	22	
2	0	0	0	0	514	510	0	507	39	24	
3	0	0	0	0	510	510	0	503	39	26	
4	0	0	0	0	500	508	0	493	39	28	
5	0	0	0	0	499	507	0	492	39	29	
6	0	0	0	0	507	508	0	494	39	29	
7	0	0	0	0	508	505	0	492	39	27	
8	0	0	0	0	509	505	0	504	39	24	
9	0	0	0	0	509	511	0	519	39	22	
10	0	0	0	0	513	516	0	516	39	23	
11	0	0	0	0	509	519	0	508	39	25	
12	0	0	0	0	506	519	0	496	39	27	
13	0	0	0	0	510	519	0	486	39	29	
14	0	0	0	0	506	520	0	479	39	29	
15	0	0	0	0	507	514	0	477	39	28	
0	0	0	0	0	511	508	0	476	39	25	
1	0	0	0	0	509	508	0	495	39	22	
2	0	0	0	0	514	508	0	509	39	22	
3	0	0	0	0	509	504	0	509	39	24	
4	0	0	0	0	508	498	0	502	39	27	
5	0	0	0	0	512	496	0	494	39	28	
6	0	0	0	0	499	500	0	487	39	29	
7	0	0	0	0	509	505	0	481	39	28	
8	0	0	0	0	506	506	0	488	39	26	
9	0	0	0	0	510	509	0	504	39	23	
10	0	0	0	0	505	514	0	507	39	22	
11	0	0	0	0	504	513	0	502	39	23	
12	0	0	0	0	505	515	0	493	39	26	
13	0	0	0	0	508	518	0	487	39	28	
14	0	0	0	0	507	511	0	483	39	29	
15	0	0	0	0	503	502	0	481	39	29	
0	0	0	0	0	512	504	0	477	39	27	
1	0	0	0	0	511	512	0	490	39	24	
2	0	0	0	0	512	512	0	508	39	22	
3	0	0	0	0	504	512	0	510	39	23	
4	0	0	0	0	519	513	0	504	39	25	
5	0	0	0	0	507	513	0	495	39	27	
6	0	0	0	0	506	516	0	497	39	29	
7	0	0	0	0	507	523	0	505	39	29	
8	0	0	0	0	506	526	0	526	39	28	
9	0	0	0	0	506	521	0	527	39	25	
10	0	0	0	0	504	519	0	518	39	22	
11	0	0	0	0	512	515	0	504	39	22	
12	0	0	0	0	505	509	0	493	39	24	
13	0	0	0	0	513	507	0	486	39	27	
14	0	0	0	0	513	508	0	482	39	28	
15	0	0	0	0	513	512	0	479	39	29	
0	0	0	0	0	512	513	0	477	39	28	
1	0	0	0	0	504	511	0	488	39	26	
2	0	0	0	0	511	510	0	513	39	23	
3	0	0	0	0	504	510	0	522	39	22	
4	0	0	0	0	505	508	0	540	39	23	
5	0	0	0	0	504	510	0	548	39	26	
6	0	0	0	0	504	515	0	550	39	28	
7	0	0	0	0	514	517	0	558	39	29	
8	0	0	0	0	512	515	0	548	39	29	
9	0	0	0	0	510	512	0	531	39	27	
10	0	0	0	0	508	512	0	514	39	24	
11	0	0	0	0	504	518	0	500	39	22	
12	0	0	0	0	506	521	0	492	39	23	
13	0	0	0	0	503	523	0	485	39	25	
14	0	0	0	0	512	526	0	480	39	27	
15	0	0	0	0	514	525	0	477	39	29	
0	0	0	0	0	510	523	0	485	39	29	
1	0	0	0	0	504	525	0	503	39	28	
2	0	0	0	0	505	528	0	508	39	25	
3	0	0	0	0	508	531	0	504	39	22	
4	0	0	0	0	508	530	0	508	39	22	
5	0	0	0	0	509	524	0	503	39	24	
6	0	0	0	0	509	523	0	496	39	27	
7	0	0	0	0	505	525	0	490	39	28	
8	0	0	0	0	504	521	0	484	39	29	
9	0	0	0	0	511	515	0	480	39	28	
10	0	0	0	0	506	517	0	490	39	26	
11	0	0	0	0	509	524	0	512	39	23	
12	0	0	0	0	512	525	0	516	39	22	
13	0	0	0	0	506	528	0	509	39	23	
14	0	0	0	0	511	531	0	498	39	26	
15	0	0	0	0	510	528	0	488	39	28	
0	0	0	0	0	509	526	0	486	39	29	
1	0	0	0	0	512	527	0	505	39	29	
2	0	0	0	0	503	531	0	511	39	27	
3	0	0	0	0	506	531	0	505	39	24	
4	0	0	0	0	505	526	0	496	39	22	
5	0	0	0	0	508	522	0	487	39	23	
6	0	0	0	0	504	521	0	481	39	25	
7	0	0	0	0	512	522	0	476	39	27	
8	0	0	0	0	512	522	0	487	39	29	
9	0	0	0	0	512	522	0	500	39	29	
10	0	0	0	0	507	520	0	503	39	28	
11	0	0	0	0	504	523	0	499	39	25	
12	0	0	0	0	506	527	0	492	39	22	
13	0	0	0	0	509	531	0	486	39	22	
14	0	0	0	0	509	528	0	481	39	24	
15	0	0	0	0	517	528	0	479	39	27	
0	0	0	0	0	511	530	0	479	39	28	
1	0	0	0	0	505	527	0	500	39	29	
2	0	0	0	0	506	526	0	517	39	28	
3	0	0	0	0	505	530	0	518	39	26	
4	0	0	0	0	506	536	0	518	39	23	
5	0	0	0	0	506	542	0	519	39	22	
6	0	0	0	0	508	541	0	513	39	23	
7	0	0	0	0	503	536	0	522	39	26	
8	0	0	0	0	503	533	0	534	39	28	
9	0	0	0	0	515	530	0	531	39	29	
10	0	0	0	0	511	528	0	523	39	29	
11	0	0	0	0	510	531	0	512	39	27	
12	0	0	0	0	508	536	0	502	39	24	
13	0	0	0	0	504	538	0	492	39	22	
14	0	0	0	0	503	537	0	486	39	23	
15	0	0	0	0	504	538	0	483	39	25	
0	0	0	0	0	511	539	0	482	39	27	
1	0	0	0	0	513	540	0	499	39	29	
2	0	0	0	0	511	538	0	523	39	29	
3	0	0	0	0	508	537	0	546	39	28	
4	0	0	0	0	506	537	0	532	39	25	
5	0	0	0	0	511	538	0	515	39	22	
6	0	0	0	0	510	538	0	507	39	22	
7	0	0	0	0	506	532	0	510	39	24	
8	0	0	0	0	512	526	0	523	39	27	
9	0	0	0	0	502	521	0	519	39	28	
10	0	0	0	0	512	518	0	509	39	29	
11	0	0	0	0	510	515	0	500	39	28	
12	0	0	0	0	501	513	0	493	39	26	
13	0	0	0	0	508	513	0	489	39	23	
14	0	0	0	0	511	517	0	487	39	22	
15	0	0	0	0	511	520	0	484	39	23	
0	0	0	0	0	507	519	0	481	39	26	
1	0	0	0	0	508	513	0	492	39	28	
2	0	0	0	0	506	513	0	516	39	29	
3	0	0	0	0	507	516	0	523	39	29	
4	0	0	0	0	505	520	0	519	39	27	
5	0	0	0	0	507	521	0	518	39	24	
6	0	0	0	0	507	514	0	512	39	22	
7	0	0	0	0	505	505	0	507	39	23	
8	0	0	0	0	509	502	0	524	39	25	
9	0	0	0	0	509	499	0	530	39	27	
10	0	0	0	0	511	500	0	522	39	29	
11	0	0	0	0	511	504	0	510	39	29	
12	0	0	0	0	512	497	0	501	39	28	
13	0	0	0	0	507	492	0	492	39	25	
14	0	0	0	0	508	493	0	485	39	23	
15	0	0	0	0	504	496	0	482	39	22	
0	0	0	0	0	505	500	0	492	39	24	
1	0	0	0	0	511	504	0	511	39	27	
2	0	0	0	0	507	507	0	514	39	28	
3	0	0	0	0	505	507	0	510	39	29	
4	0	0	0	0	509	508	0	502	39	29	
5	0	0	0	0	513	508	0	497	39	26	
6	0	0	0	0	505	511	0	491	39	23	
7	0	0	0	0	503	510	0	487	39	22	
8	0	0	0	0	509	506	0	486	39	23	
9	0	0	0	0	505	499	0	501	39	26	
10	0	0	0	0	512	492	0	519	39	28	
11	0	0	0	0	508	495	0	522	39	29	
12	0	0	0	0	510	499	0	516	39	29	
13	0	0	0	0	509	503	0	506	39	27	
14	0	0	0	0	503	504	0	496	39	24	
15	0	0	0	0	510	504	0	488	39	22	
0	0	0	0	0	506	508	0	487	39	23	
1	0	0	0	0	510	512	0	506	39	25	
2	0	0	0	0	504	513	0	513	39	27	
3	0	0	0	0	512	512	0	509	39	29	
