# OpenSignals Text File Format. Version 1
# {"98:D3:71:FD:62:12": {"position": 0, "device": "bitalino_rev", "device name": "98:D3:71:FD:62:12", "device connection": "BTH98:D3:71:FD:62:12", "sampling rate": 1000, "resolution": [4, 1, 1, 1, 1, 10, 10, 10, 10, 6, 6], "firmware version": 1282, "comments": "", "keywords": "", "mode": 0, "sync interval": 2, "date": "2024-4-19", "time": "10:7:10.759", "channels": [1, 2, 3, 4, 5, 6], "sensor": ["RAW", "RAW", "RAW", "RAW", "RAW", "RAW"], "label": ["A1", "A2", "A3", "A4", "A5", "A6"], "column": ["nSeq", "I1", "I2", "O1", "O2", "A1", "A2", "A3", "A4", "A5", "A6"], "special": [{}, {}, {}, {}, {}, {}], "digital IO": [0, 0, 1, 1], "convertedValues": 0}}
# EndOfHeader
0	0	0	0	0	511	478	0	543	26	1	
1	0	0	0	0	508	473	0	540	26	1	
2	0	0	0	0	511	475	0	540	26	1	
3	0	0	0	0	510	480	0	540	26	1	
4	0	0	0	0	506	490	0	539	26	1	
5	0	0	0	0	505	494	0	537	26	1	
6	0	0	0	0	511	496	0	539	26	1	
7	0	0	0	0	503	502	0	539	26	1	
8	0	0	0	0	503	512	0	535	26	1	
9	0	0	0	0	512	505	0	532	26	1	
10	0	0	0	0	508	501	0	534	26	1	
11	0	0	0	0	518	502	0	537	26	1	
12	0	0	0	0	504	504	0	540	26	1	
13	0	0	0	0	508	511	0	542	26	1	
14	0	0	0	0	507	514	0	551	26	1	
15	0	0	0	0	512	518	0	543	26	1	
0	0	0	0	0	510	515	0	541	26	1	
1	0	0	0	0	505	507	0	538	26	1	
2	0	0	0	0	501	497	0	539	26	1	
3	0	0	0	0	510	498	0	541	26	1	
4	0	0	0	0	507	499	0	556	26	1	
5	0	0	0	0	502	499	0	595	26	1	
6	0	0	0	0	505	504	0	608	26	1	
7	0	0	0	0	506	511	0	615	26	1	
8	0	0	0	0	505	510	0	602	26	1	
9	0	0	0	0	509	503	0	588	26	1	
10	0	0	0	0	508	492	0	577	26	1	
11	0	0	0	0	511	497	0	569	26	1	
12	0	0	0	0	510	512	0	564	26	1	
13	0	0	0	0	510	520	0	561	26	1	
14	0	0	0	0	505	513	0	558	26	1	
15	0	0	0	0	507	505	0	557	26	1	
0	0	0	0	0	506	512	0	552	26	1	
1	0	0	0	0	511	523	0	548	26	1	
2	0	0	0	0	508	531	0	548	26	1	
3	0	0	0	0	511	535	0	549	26	1	
4	0	0	0	0	503	534	0	554	26	1	
5	0	0	0	0	500	534	0	560	26	1	
6	0	0	0	0	512	529	0	561	26	1	
7	0	0	0	0	513	528	0	559	26	1	
8	0	0	0	0	510	523	0	556	26	1	
9	0	0	0	0	501	523	0	554	26	1	
10	0	0	0	0	512	532	0	556	26	1	
11	0	0	0	0	510	537	0	563	26	1	
12	0	0	0	0	509	537	0	567	26	1	
13	0	0	0	0	507	527	0	571	26	1	
14	0	0	0	0	507	514	0	582	26	1	
15	0	0	0	0	516	515	0	610	26	1	
0	0	0	0	0	515	520	0	623	26	1	
1	0	0	0	0	502	519	0	640	26	1	
2	0	0	0	0	509	518	0	650	26	1	
3	0	0	0	0	510	513	0	649	26	1	
4	0	0	0	0	502	517	0	661	26	1	
5	0	0	0	0	504	525	0	658	26	1	
6	0	0	0	0	501	534	0	663	26	1	
7	0	0	0	0	505	538	0	667	26	1	
8	0	0	0	0	510	533	0	664	26	1	
9	0	0	0	0	509	523	0	672	26	1	
10	0	0	0	0	511	512	0	665	26	1	
11	0	0	0	0	511	510	0	648	26	1	
12	0	0	0	0	504	514	0	632	26	1	
13	0	0	0	0	513	519	0	620	26	1	
14	0	0	0	0	507	521	0	611	26	1	
15	0	0	0	0	511	529	0	606	26	1	
0	0	0	0	0	507	529	0	617	26	1	
1	0	0	0	0	506	520	0	629	26	1	
2	0	0	0	0	508	513	0	636	26	1	
3	0	0	0	0	510	519	0	656	26	1	
4	0	0	0	0	501	528	0	660	26	1	
5	0	0	0	0	503	537	0	667	26	1	
6	0	0	0	0	506	543	0	673	26	1	
7	0	0	0	0	503	544	0	664	26	1	
8	0	0	0	0	508	540	0	670	26	1	
9	0	0	0	0	510	555	0	666	26	1	
10	0	0	0	0	512	563	0	661	26	1	
11	0	0	0	0	507	560	0	649	26	1	
12	0	0	0	0	507	559	0	636	26	1	
13	0	0	0	0	510	559	0	623	26	1	
14	0	0	0	0	517	560	0	614	26	1	
15	0	0	0	0	508	565	0	606	26	1	
0	0	0	0	0	507	571	0	602	26	1	
1	0	0	0	0	512	575	0	607	26	1	
2	0	0	0	0	511	577	0	629	26	1	
3	0	0	0	0	513	575	0	636	26	1	
4	0	0	0	0	505	570	0	649	26	1	
5	0	0	0	0	505	571	0	657	26	1	
6	0	0	0	0	505	572	0	656	26	1	
7	0	0	0	0	504	567	0	668	26	1	
8	0	0	0	0	510	561	0	664	26	1	
9	0	0	0	0	509	561	0	646	26	1	
10	0	0	0	0	503	564	0	630	26	1	
11	0	0	0	0	512	572	0	617	26	1	
12	0	0	0	0	508	574	0	611	26	1	
13	0	0	0	0	512	567	0	604	26	1	
14	0	0	0	0	514	561	0	598	26	1	
15	0	0	0	0	507	560	0	594	26	1	
0	0	0	0	0	505	561	0	597	26	1	
1	0	0	0	0	502	563	0	616	26	1	
2	0	0	0	0	504	564	0	622	26	1	
3	0	0	0	0	513	562	0	620	26	1	
4	0	0	0	0	503	566	0	623	26	1	
5	0	0	0	0	508	575	0	622	26	1	
6	0	0	0	0	506	583	0	616	26	1	
7	0	0	0	0	512	588	0	608	26	1	
8	0	0	0	0	514	591	0	599	26	1	
9	0	0	0	0	500	596	0	606	26	1	
10	0	0	0	0	514	596	0	624	26	1	
11	0	0	0	0	511	598	0	625	26	1	
12	0	0	0	0	503	604	0	616	26	1	
13	0	0	0	0	504	600	0	621	26	1	
14	0	0	0	0	515	598	0	632	26	1	
15	0	0	0	0	505	595	0	640	26	1	
0	0	0	0	0	510	593	0	646	26	1	
1	0	0	0	0	512	591	0	642	26	1	
2	0	0	0	0	506	585	0	628	26	1	
3	0	0	0	0	506	578	0	612	26	1	
4	0	0	0	0	507	578	0	599	26	1	
5	0	0	0	0	506	582	0	588	26	1	
6	0	0	0	0	505	583	0	579	26	1	
7	0	0	0	0	504	577	0	571	26	1	
8	0	0	0	0	508	579	0	564	26	1	
9	0	0	0	0	517	582	0	558	26	1	
10	0	0	0	0	505	583	0	556	26	1	
11	0	0	0	0	503	583	0	558	26	1	
12	0	0	0	0	514	567	0	556	26	1	
13	0	0	0	0	511	559	0	556	26	1	
14	0	0	0	0	499	568	0	557	26	1	
15	0	0	0	0	504	576	0	555	26	1	
0	0	0	0	0	512	577	0	550	26	1	
1	0	0	0	0	508	576	0	549	26	1	
2	0	0	0	0	510	572	0	548	26	1	
3	0	0	0	0	510	573	0	550	26	1	
4	0	0	0	0	511	576	0	551	26	1	
5	0	0	0	0	503	572	0	552	26	1	
6	0	0	0	0	511	563	0	553	26	1	
7	0	0	0	0	511	555	0	554	26	1	
8	0	0	0	0	515	554	0	548	26	1	
9	0	0	0	0	503	553	0	543	26	1	
10	0	0	0	0	504	550	0	543	26	1	
11	0	0	0	0	508	545	0	544	26	1	
12	0	0	0	0	511	538	0	561	26	1	
13	0	0	0	0	510	536	0	587	26	1	
14	0	0	0	0	507	537	0	594	26	1	
15	0	0	0	0	501	537	0	588	26	1	
0	0	0	0	0	507	536	0	572	26	1	
1	0	0	0	0	511	527	0	558	26	1	
2	0	0	0	0	509	519	0	553	26	1	
3	0	0	0	0	507	515	0	547	26	1	
4	0	0	0	0	506	514	0	545	26	1	
5	0	0	0	0	504	518	0	544	26	1	
6	0	0	0	0	503	521	0	542	26	1	
7	0	0	0	0	509	520	0	540	26	1	
8	0	0	0	0	511	511	0	551	26	1	
9	0	0	0	0	504	503	0	530	26	1	
10	0	0	0	0	504	505	0	529	26	1	
11	0	0	0	0	510	508	0	531	26	1	
12	0	0	0	0	512	502	0	534	26	1	
13	0	0	0	0	507	490	0	537	26	1	
14	0	0	0	0	503	488	0	540	26	1	
15	0	0	0	0	504	488	0	537	26	1	
0	0	0	0	0	511	481	0	532	26	1	
1	0	0	0	0	518	479	0	537	26	1	
2	0	0	0	0	512	480	0	566	26	1	
3	0	0	0	0	508	478	0	580	26	1	
4	0	0	0	0	513	480	0	600	26	1	
5	0	0	0	0	507	477	0	615	26	1	
6	0	0	0	0	504	472	0	618	26	1	
7	0	0	0	0	502	476	0	632	26	1	
8	0	0	0	0	512	478	0	632	26	1	
9	0	0	0	0	512	476	0	633	26	1	
10	0	0	0	0	510	480	0	634	26	1	
11	0	0	0	0	512	484	0	626	26	1	
12	0	0	0	0	508	480	0	633	26	1	
13	0	0	0	0	511	484	0	624	26	1	
14	0	0	0	0	507	483	0	624	26	1	
15	0	0	0	0	512	479	0	625	26	1	
0	0	0	0	0	509	474	0	617	26	1	
1	0	0	0	0	510	462	0	623	26	1	
2	0	0	0	0	508	449	0	613	26	1	
3	0	0	0	0	507	448	0	595	26	1	
4	0	0	0	0	502	455	0	580	26	1	
5	0	0	0	0	503	457	0	567	26	1	
6	0	0	0	0	504	463	0	558	26	1	
7	0	0	0	0	509	466	0	551	26	1	
8	0	0	0	0	510	460	0	546	26	1	
9	0	0	0	0	506	463	0	543	26	1	
10	0	0	0	0	512	474	0	563	26	1	
11	0	0	0	0	509	481	0	573	26	1	
12	0	0	0	0	510	487	0	580	26	1	
13	0	0	0	0	502	492	0	575	26	1	
14	0	0	0	0	512	486	0	579	26	1	
15	0	0	0	0	508	479	0	591	26	1	
0	0	0	0	0	508	479	0	588	26	1	
1	0	0	0	0	507	483	0	577	26	1	
2	0	0	0	0	510	477	0	576	26	1	
3	0	0	0	0	509	471	0	569	26	1	
4	0	0	0	0	509	460	0	561	26	1	
5	0	0	0	0	508	446	0	556	26	1	
6	0	0	0	0	507	448	0	549	26	1	
7	0	0	0	0	509	455	0	544	26	1	
8	0	0	0	0	509	462	0	559	26	1	
9	0	0	0	0	508	471	0	561	26	1	
10	0	0	0	0	508	474	0	583	26	1	
11	0	0	0	0	507	476	0	587	26	1	
12	0	0	0	0	504	479	0	578	26	1	
13	0	0	0	0	511	483	0	566	26	1	
14	0	0	0	0	503	488	0	558	26	1	
15	0	0	0	0	512	492	0	550	26	1	
0	0	0	0	0	504	487	0	542	26	1	
1	0	0	0	0	505	472	0	535	26	1	
2	0	0	0	0	508	468	0	531	26	1	
3	0	0	0	0	512	474	0	530	26	1	
4	0	0	0	0	514	475	0	533	26	1	
5	0	0	0	0	507	475	0	558	26	1	
6	0	0	0	0	507	471	0	572	26	1	
7	0	0	0	0	509	466	0	582	26	1	
8	0	0	0	0	505	462	0	597	26	1	
9	0	0	0	0	507	458	0	590	26	1	
10	0	0	0	0	504	459	0	577	26	1	
11	0	0	0	0	509	468	0	561	26	1	
12	0	0	0	0	515	469	0	548	26	1	
13	0	0	0	0	508	471	0	540	26	1	
14	0	0	0	0	507	478	0	534	26	1	
15	0	0	0	0	502	481	0	531	26	1	
0	0	0	0	0	515	478	0	527	26	1	
1	0	0	0	0	502	480	0	535	26	1	
2	0	0	0	0	508	480	0	558	26	1	
3	0	0	0	0	505	487	0	561	26	1	
4	0	0	0	0	507	490	0	557	26	1	
5	0	0	0	0	510	493	0	560	26	1	
6	0	0	0	0	506	490	0	553	26	1	
7	0	0	0	0	502	478	0	552	26	1	
8	0	0	0	0	515	468	0	569	26	1	
9	0	0	0	0	508	465	0	574	26	1	
10	0	0	0	0	504	474	0	565	26	1	
11	0	0	0	0	503	488	0	554	26	1	
12	0	0	0	0	512	499	0	545	26	1	
13	0	0	0	0	510	505	0	536	26	1	
14	0	0	0	0	515	508	0	529	26	1	
15	0	0	0	0	516	508	0	526	26	1	
0	0	0	0	0	508	510	0	533	26	1	
1	0	0	0	0	504	506	0	551	26	1	
2	0	0	0	0	508	497	0	553	26	1	
3	0	0	0	0	504	487	0	550	26	1	
4	0	0	0	0	517	483	0	543	26	1	
5	0	0	0	0	504	488	0	536	26	1	
6	0	0	0	0	503	496	0	530	26	1	
7	0	0	0	0	513	493	0	529	26	1	
8	0	0	0	0	511	481	0	526	26	1	
9	0	0	0	0	511	483	0	540	26	1	
10	0	0	0	0	505	490	0	557	26	1	
11	0	0	0	0	505	497	0	560	26	1	
12	0	0	0	0	505	493	0	564	26	1	
13	0	0	0	0	508	491	0	543	26	1	
14	0	0	0	0	511	485	0	532	26	1	
15	0	0	0	0	507	482	0	521	26	1	
0	0	0	0	0	504	486	0	517	26	1	
1	0	0	0	0	515	494	0	535	26	1	
2	0	0	0	0	513	494	0	545	26	1	
3	0	0	0	0	504	493	0	543	26	1	
4	0	0	0	0	515	498	0	547	26	1	
5	0	0	0	0	511	506	0	546	26	1	
6	0	0	0	0	508	507	0	541	26	1	
7	0	0	0	0	504	504	0	535	26	1	
8	0	0	0	0	505	505	0	526	26	1	
9	0	0	0	0	506	508	0	535	26	1	
10	0	0	0	0	508	512	0	556	26	1	
11	0	0	0	0	510	511	0	562	26	1	
12	0	0	0	0	507	507	0	578	26	1	
13	0	0	0	0	507	503	0	583	26	1	
14	0	0	0	0	500	507	0	584	26	1	
15	0	0	0	0	506	510	0	593	26	1	
0	0	0	0	0	510	512	0	581	26	1	
1	0	0	0	0	512	513	0	563	26	1	
2	0	0	0	0	505	510	0	545	26	1	
3	0	0	0	0	507	511	0	530	26	1	
4	0	0	0	0	512	507	0	521	26	1	
5	0	0	0	0	509	506	0	517	26	1	
6	0	0	0	0	504	509	0	513	26	1	
7	0	0	0	0	503	513	0	511	26	1	
8	0	0	0	0	508	514	0	521	26	1	
9	0	0	0	0	515	515	0	539	26	1	
10	0	0	0	0	515	517	0	543	26	1	
11	0	0	0	0	505	515	0	541	26	1	
12	0	0	0	0	505	516	0	532	26	1	
13	0	0	0	0	511	519	0	526	26	1	
14	0	0	0	0	500	525	0	521	26	1	
15	0	0	0	0	509	525	0	517	26	1	
0	0	0	0	0	504	526	0	512	26	1	
1	0	0	0	0	507	527	0	528	26	1	
2	0	0	0	0	508	522	0	560	26	1	
3	0	0	0	0	512	522	0	549	26	1	
4	0	0	0	0	508	528	0	546	26	1	
5	0	0	0	0	504	539	0	547	26	1	
6	0	0	0	0	514	551	0	540	26	1	
7	0	0	0	0	509	549	0	546	26	1	
8	0	0	0	0	510	541	0	574	26	1	
9	0	0	0	0	503	536	0	560	26	1	
10	0	0	0	0	509	527	0	548	26	1	
11	0	0	0	0	514	522	0	535	26	1	
12	0	0	0	0	508	524	0	522	26	1	
13	0	0	0	0	512	525	0	518	26	1	
14	0	0	0	0	504	526	0	508	26	1	
15	0	0	0	0	503	529	0	503	26	1	
0	0	0	0	0	507	531	0	499	26	1	
1	0	0	0	0	503	524	0	508	26	1	
2	0	0	0	0	505	516	0	534	26	1	
3	0	0	0	0	512	511	0	538	26	1	
4	0	0	0	0	507	518	0	532	26	1	
5	0	0	0	0	507	510	0	523	26	1	
6	0	0	0	0	508	474	0	515	26	1	
7	0	0	0	0	505	460	0	514	26	1	
8	0	0	0	0	511	472	0	534	26	1	
9	0	0	0	0	513	490	0	540	26	1	
10	0	0	0	0	511	504	0	534	26	1	
11	0	0	0	0	506	511	0	527	26	1	
12	0	0	0	0	504	515	0	519	26	1	
13	0	0	0	0	503	517	0	515	26	1	
14	0	0	0	0	510	523	0	510	26	1	
15	0	0	0	0	515	528	0	504	26	1	
0	0	0	0	0	505	531	0	512	26	1	
1	0	0	0	0	506	538	0	529	26	1	
2	0	0	0	0	508	540	0	530	26	1	
3	0	0	0	0	508	539	0	526	26	1	
4	0	0	0	0	512	536	0	529	26	1	
5	0	0	0	0	500	529	0	524	26	1	
6	0	0	0	0	508	524	0	518	26	1	
7	0	0	0	0	503	523	0	526	26	1	
8	0	0	0	0	508	524	0	505	26	1	
9	0	0	0	0	500	527	0	498	26	1	
10	0	0	0	0	512	527	0	508	26	1	
11	0	0	0	0	508	518	0	529	26	1	
12	0	0	0	0	507	494	0	536	26	1	
13	0	0	0	0	507	468	0	529	26	1	
14	0	0	0	0	503	462	0	520	26	1	
15	0	0	0	0	510	475	0	512	26	1	
0	0	0	0	0	515	493	0	507	26	1	
1	0	0	0	0	512	504	0	504	26	1	
2	0	0	0	0	513	512	0	522	26	1	
3	0	0	0	0	513	516	0	535	26	1	
4	0	0	0	0	511	519	0	532	26	1	
5	0	0	0	0	508	531	0	525	26	1	
6	0	0	0	0	503	539	0	517	26	1	
7	0	0	0	0	507	538	0	509	26	1	
8	0	0	0	0	508	540	0	518	26	1	
9	0	0	0	0	512	538	0	527	26	1	
10	0	0	0	0	508	536	0	526	26	1	
11	0	0	0	0	505	537	0	522	26	1	
12	0	0	0	0	505	537	0	514	26	1	
13	0	0	0	0	505	531	0	506	26	1	
14	0	0	0	0	503	521	0	501	26	1	
15	0	0	0	0	510	513	0	499	26	1	
0	0	0	0	0	511	515	0	498	26	1	
1	0	0	0	0	515	517	0	519	26	1	
2	0	0	0	0	507	521	0	534	26	1	
3	0	0	0	0	508	521	0	532	26	1	
4	0	0	0	0	507	519	0	533	26	1	
5	0	0	0	0	503	520	0	532	26	1	
6	0	0	0	0	515	514	0	527	26	1	
7	0	0	0	0	506	515	0	534	26	1	
8	0	0	0	0	508	519	0	543	26	1	
9	0	0	0	0	507	524	0	538	26	1	
10	0	0	0	0	507	522	0	525	26	1	
11	0	0	0	0	504	520	0	513	26	1	
12	0	0	0	0	504	515	0	501	26	1	
13	0	0	0	0	505	503	0	494	26	1	
14	0	0	0	0	514	501	0	491	26	1	
15	0	0	0	0	505	502	0	491	26	1	
0	0	0	0	0	509	495	0	492	26	1	
1	0	0	0	0	507	480	0	507	26	1	
2	0	0	0	0	511	463	0	528	26	1	
3	0	0	0	0	508	445	0	532	26	1	
4	0	0	0	0	511	446	0	525	26	1	
5	0	0	0	0	511	455	0	517	26	1	
6	0	0	0	0	510	461	0	508	26	1	
7	0	0	0	0	507	459	0	512	26	1	
8	0	0	0	0	510	454	0	525	26	1	
9	0	0	0	0	512	450	0	521	26	1	
10	0	0	0	0	507	448	0	514	26	1	
11	0	0	0	0	509	446	0	505	26	1	
12	0	0	0	0	509	446	0	500	26	1	
13	0	0	0	0	504	439	0	496	26	1	
14	0	0	0	0	506	425	0	494	26	1	
15	0	0	0	0	501	415	0	492	26	1	
0	0	0	0	0	508	415	0	500	26	1	
1	0	0	0	0	500	414	0	501	26	1	
2	0	0	0	0	510	413	0	524	26	1	
3	0	0	0	0	507	410	0	529	26	1	
4	0	0	0	0	508	398	0	524	26	1	
5	0	0	0	0	504	376	0	524	26	1	
6	0	0	0	0	504	358	0	516	26	1	
7	0	0	0	0	513	352	0	514	26	1	
8	0	0	0	0	506	358	0	530	26	1	
9	0	0	0	0	512	359	0	535	26	1	
10	0	0	0	0	511	359	0	524	26	1	
11	0	0	0	0	514	355	0	511	26	1	
12	0	0	0	0	509	347	0	499	26	1	
13	0	0	0	0	503	341	0	490	26	1	
14	0	0	0	0	512	337	0	487	26	1	
15	0	0	0	0	509	333	0	482	26	1	
0	0	0	0	0	509	324	0	490	26	1	
1	0	0	0	0	502	309	0	506	26	1	
2	0	0	0	0	507	299	0	511	26	1	
3	0	0	0	0	515	299	0	529	26	1	
4	0	0	0	0	509	304	0	537	26	1	
5	0	0	0	0	507	311	0	530	26	1	
6	0	0	0	0	503	312	0	525	26	1	
7	0	0	0	0	507	313	0	537	26	1	
8	0	0	0	0	515	302	0	537	26	1	
9	0	0	0	0	510	290	0	528	26	1	
10	0	0	0	0	503	280	0	512	26	1	
11	0	0	0	0	500	281	0	499	26	1	
12	0	0	0	0	505	284	0	492	26	1	
13	0	0	0	0	509	283	0	484	26	1	
14	0	0	0	0	511	277	0	479	26	1	
15	0	0	0	0	505	286	0	482	26	1	
0	0	0	0	0	512	292	0	477	26	1	
1	0	0	0	0	513	290	0	479	26	1	
2	0	0	0	0	505	287	0	500	26	1	
3	0	0	0	0	508	284	0	515	26	1	
4	0	0	0	0	512	273	0	513	26	1	
5	0	0	0	0	508	257	0	505	26	1	
6	0	0	0	0	505	255	0	497	26	1	
7	0	0	0	0	511	253	0	499	26	1	
8	0	0	0	0	508	256	0	512	26	1	
9	0	0	0	0	508	258	0	526	26	1	
10	0	0	0	0	503	260	0	534	26	1	
11	0	0	0	0	508	257	0	517	26	1	
12	0	0	0	0	508	248	0	515	26	1	
13	0	0	0	0	511	248	0	508	26	1	
14	0	0	0	0	509	247	0	496	26	1	
15	0	0	0	0	509	248	0	490	26	1	
0	0	0	0	0	511	259	0	487	26	1	
1	0	0	0	0	509	261	0	481	26	1	
2	0	0	0	0	508	260	0	493	26	1	
3	0	0	0	0	499	257	0	512	26	1	
4	0	0	0	0	507	260	0	513	26	1	
5	0	0	0	0	509	263	0	507	26	1	
6	0	0	0	0	515	262	0	510	26	1	
7	0	0	0	0	513	261	0	487	26	1	
8	0	0	0	0	512	263	0	480	26	1	
9	0	0	0	0	507	262	0	482	26	1	
10	0	0	0	0	505	262	0	504	26	1	
11	0	0	0	0	496	264	0	509	26	1	
12	0	0	0	0	508	266	0	504	26	1	
13	0	0	0	0	511	270	0	495	26	1	
14	0	0	0	0	505	282	0	503	26	1	
15	0	0	0	0	514	298	0	481	26	1	
0	0	0	0	0	513	304	0	496	26	1	
1	0	0	0	0	513	295	0	506	26	1	
2	0	0	0	0	507	295	0	504	26	1	
3	0	0	0	0	509	310	0	498	26	1	
4	0	0	0	0	504	325	0	493	26	1	
5	0	0	0	0	507	333	0	488	26	1	
6	0	0	0	0	508	340	0	482	26	1	
7	0	0	0	0	512	351	0	479	26	1	
8	0	0	0	0	509	355	0	484	26	1	
9	0	0	0	0	502	364	0	505	26	1	
10	0	0	0	0	504	365	0	513	26	1	
11	0	0	0	0	511	358	0	508	26	1	
12	0	0	0	0	515	352	0	512	26	1	
13	0	0	0	0	503	364	0	512	26	1	
14	0	0	0	0	502	371	0	507	26	1	
15	0	0	0	0	507	375	0	501	26	1	
0	0	0	0	0	512	381	0	495	26	1	
1	0	0	0	0	510	387	0	502	26	1	
2	0	0	0	0	511	391	0	522	26	1	
3	0	0	0	0	507	396	0	525	26	1	
4	0	0	0	0	508	400	0	520	26	1	
5	0	0	0	0	507	408	0	508	26	1	
6	0	0	0	0	512	422	0	498	26	1	
7	0	0	0	0	507	432	0	491	26	1	
8	0	0	0	0	512	437	0	488	26	1	
9	0	0	0	0	507	439	0	505	26	1	
10	0	0	0	0	506	444	0	517	26	1	
11	0	0	0	0	507	452	0	516	26	1	
12	0	0	0	0	510	451	0	508	26	1	
13	0	0	0	0	508	440	0	499	26	1	
14	0	0	0	0	508	438	0	490	26	1	
15	0	0	0	0	507	451	0	484	26	1	
0	0	0	0	0	504	461	0	490	26	1	
1	0	0	0	0	506	460	0	505	26	1	
2	0	0	0	0	507	452	0	510	26	1	
3	0	0	0	0	505	447	0	515	26	1	
4	0	0	0	0	509	460	0	499	26	1	
5	0	0	0	0	505	481	0	493	26	1	
6	0	0	0	0	507	491	0	489	26	1	
7	0	0	0	0	509	480	0	486	26	1	
8	0	0	0	0	511	472	0	487	26	1	
9	0	0	0	0	508	479	0	501	26	1	
10	0	0	0	0	503	497	0	521	26	1	
11	0	0	0	0	508	517	0	524	26	1	
12	0	0	0	0	508	531	0	521	26	1	
13	0	0	0	0	503	545	0	524	26	1	
14	0	0	0	0	510	564	0	516	26	1	
15	0	0	0	0	513	579	0	523	26	1	
0	0	0	0	0	511	596	0	540	26	1	
1	0	0	0	0	505	616	0	542	26	1	
2	0	0	0	0	498	635	0	534	26	1	
3	0	0	0	0	513	654	0	522	26	1	
4	0	0	0	0	503	678	0	512	26	1	
5	0	0	0	0	505	701	0	505	26	1	
6	0	0	0	0	511	723	0	504	26	1	
7	0	0	0	0	516	743	0	499	26	1	
8	0	0	0	0	508	761	0	496	26	1	
9	0	0	0	0	503	775	0	507	26	1	
10	0	0	0	0	506	791	0	530	26	1	
11	0	0	0	0	507	815	0	536	26	1	
12	0	0	0	0	514	833	0	531	26	1	
13	0	0	0	0	515	846	0	520	26	1	
14	0	0	0	0	508	866	0	514	26	1	
15	0	0	0	0	506	880	0	512	26	1	
0	0	0	0	0	504	896	0	529	26	1	
1	0	0	0	0	513	911	0	533	26	1	
2	0	0	0	0	510	907	0	527	26	1	
3	0	0	0	0	508	900	0	517	26	1	
4	0	0	0	0	507	895	0	512	26	1	
5	0	0	0	0	503	885	0	512	26	1	
6	0	0	0	0	510	867	0	499	26	1	
7	0	0	0	0	506	852	0	494	26	1	
8	0	0	0	0	504	839	0	500	26	1	
9	0	0	0	0	512	822	0	516	26	1	
10	0	0	0	0	511	801	0	521	26	1	
11	0	0	0	0	508	782	0	516	26	1	
12	0	0	0	0	506	762	0	519	26	1	
13	0	0	0	0	511	743	0	515	26	1	
14	0	0	0	0	510	727	0	508	26	1	
15	0	0	0	0	507	700	0	500	26	1	
0	0	0	0	0	499	664	0	494	26	1	
1	0	0	0	0	507	642	0	487	26	1	
2	0	0	0	0	501	620	0	496	26	1	
3	0	0	0	0	507	600	0	516	26	1	
4	0	0	0	0	511	591	0	522	26	1	
5	0	0	0	0	509	584	0	518	26	1	
6	0	0	0	0	507	584	0	507	26	1	
7	0	0	0	0	515	579	0	499	26	1	
8	0	0	0	0	507	575	0	493	26	1	
9	0	0	0	0	508	581	0	490	26	1	
10	0	0	0	0	498	585	0	508	26	1	
11	0	0	0	0	508	583	0	523	26	1	
12	0	0	0	0	511	574	0	519	26	1	
13	0	0	0	0	509	574	0	511	26	1	
14	0	0	0	0	508	581	0	503	26	1	
15	0	0	0	0	507	588	0	495	26	1	
0	0	0	0	0	511	588	0	504	26	1	
1	0	0	0	0	510	570	0	515	26	1	
2	0	0	0	0	510	547	0	512	26	1	
3	0	0	0	0	507	545	0	505	26	1	
4	0	0	0	0	510	556	0	496	26	1	
5	0	0	0	0	511	565	0	488	26	1	
6	0	0	0	0	512	577	0	482	26	1	
7	0	0	0	0	510	591	0	480	26	1	
8	0	0	0	0	510	597	0	477	26	1	
9	0	0	0	0	510	601	0	495	26	1	
10	0	0	0	0	504	608	0	509	26	1	
11	0	0	0	0	502	614	0	520	26	1	
12	0	0	0	0	510	611	0	537	26	1	
13	0	0	0	0	504	615	0	540	26	1	
14	0	0	0	0	506	620	0	545	26	1	
15	0	0	0	0	507	618	0	540	26	1	
0	0	0	0	0	508	612	0	535	26	1	
1	0	0	0	0	504	614	0	537	26	1	
2	0	0	0	0	509	610	0	531	26	1	
3	0	0	0	0	507	608	0	537	26	1	
4	0	0	0	0	504	621	0	535	26	1	
5	0	0	0	0	508	629	0	534	26	1	
6	0	0	0	0	504	635	0	542	26	1	
7	0	0	0	0	504	640	0	535	26	1	
8	0	0	0	0	510	642	0	543	26	1	
9	0	0	0	0	507	636	0	555	26	1	
10	0	0	0	0	515	639	0	524	26	1	
11	0	0	0	0	506	643	0	509	26	1	
12	0	0	0	0	511	646	0	495	26	1	
13	0	0	0	0	511	652	0	483	26	1	
14	0	0	0	0	515	660	0	473	26	1	
15	0	0	0	0	507	669	0	467	26	1	
0	0	0	0	0	507	671	0	464	26	1	
1	0	0	0	0	507	661	0	457	26	1	
2	0	0	0	0	500	654	0	454	26	1	
3	0	0	0	0	505	658	0	470	26	1	
4	0	0	0	0	507	655	0	492	26	1	
5	0	0	0	0	510	641	0	502	26	1	
6	0	0	0	0	514	632	0	519	26	1	
7	0	0	0	0	505	632	0	520	26	1	
8	0	0	0	0	511	635	0	523	26	1	
9	0	0	0	0	502	633	0	526	26	1	
10	0	0	0	0	512	634	0	515	26	1	
11	0	0	0	0	510	637	0	504	26	1	
12	0	0	0	0	505	646	0	500	26	1	
13	0	0	0	0	507	646	0	489	26	1	
14	0	0	0	0	515	643	0	479	26	1	
15	0	0	0	0	508	632	0	471	26	1	
0	0	0	0	0	509	627	0	465	26	1	
1	0	0	0	0	504	627	0	460	26	1	
2	0	0	0	0	506	626	0	478	26	1	
3	0	0	0	0	507	623	0	491	26	1	
4	0	0	0	0	504	620	0	493	26	1	
5	0	0	0	0	509	620	0	487	26	1	
6	0	0	0	0	508	626	0	480	26	1	
7	0	0	0	0	509	638	0	471	26	1	
8	0	0	0	0	508	647	0	468	26	1	
9	0	0	0	0	511	650	0	468	26	1	
10	0	0	0	0	509	649	0	491	26	1	
11	0	0	0	0	507	647	0	495	26	1	
12	0	0	0	0	512	639	0	490	26	1	
13	0	0	0	0	511	638	0	481	26	1	
14	0	0	0	0	508	645	0	476	26	1	
15	0	0	0	0	504	641	0	474	26	1	
0	0	0	0	0	503	643	0	486	26	1	
1	0	0	0	0	508	647	0	494	26	1	
2	0	0	0	0	504	641	0	499	26	1	
3	0	0	0	0	505	629	0	497	26	1	
4	0	0	0	0	510	615	0	489	26	1	
5	0	0	0	0	504	619	0	481	26	1	
6	0	0	0	0	510	635	0	474	26	1	
7	0	0	0	0	512	648	0	466	26	1	
8	0	0	0	0	510	642	0	463	26	1	
9	0	0	0	0	510	634	0	464	26	1	
10	0	0	0	0	508	627	0	483	26	1	
11	0	0	0	0	503	626	0	495	26	1	
12	0	0	0	0	504	630	0	496	26	1	
13	0	0	0	0	506	636	0	487	26	1	
14	0	0	0	0	512	639	0	479	26	1	
15	0	0	0	0	510	639	0	472	26	1	
0	0	0	0	0	512	645	0	465	26	1	
1	0	0	0	0	503	649	0	461	26	1	
2	0	0	0	0	511	637	0	463	26	1	
3	0	0	0	0	504	628	0	484	26	1	
4	0	0	0	0	507	625	0	498	26	1	
5	0	0	0	0	507	618	0	486	26	1	
6	0	0	0	0	512	612	0	487	26	1	
7	0	0	0	0	505	615	0	500	26	1	
8	0	0	0	0	503	624	0	496	26	1	
9	0	0	0	0	510	626	0	484	26	1	
10	0	0	0	0	504	625	0	486	26	1	
11	0	0	0	0	510	618	0	479	26	1	
12	0	0	0	0	511	601	0	470	26	1	
13	0	0	0	0	506	595	0	463	26	1	
14	0	0	0	0	510	595	0	457	26	1	
15	0	0	0	0	504	604	0	451	26	1	
0	0	0	0	0	504	609	0	448	26	1	
1	0	0	0	0	514	613	0	454	26	1	
2	0	0	0	0	510	614	0	490	26	1	
3	0	0	0	0	502	611	0	483	26	1	
4	0	0	0	0	509	607	0	478	26	1	
5	0	0	0	0	516	605	0	470	26	1	
6	0	0	0	0	504	609	0	463	26	1	
7	0	0	0	0	509	620	0	460	26	1	
8	0	0	0	0	507	624	0	475	26	1	
9	0	0	0	0	511	625	0	485	26	1	
10	0	0	0	0	507	628	0	480	26	1	
11	0	0	0	0	511	632	0	473	26	1	
12	0	0	0	0	511	636	0	466	26	1	
13	0	0	0	0	504	646	0	460	26	1	
14	0	0	0	0	512	652	0	454	26	1	
15	0	0	0	0	504	646	0	450	26	1	
0	0	0	0	0	508	636	0	457	26	1	
1	0	0	0	0	502	635	0	476	26	1	
2	0	0	0	0	512	635	0	484	26	1	
3	0	0	0	0	510	624	0	481	26	1	
4	0	0	0	0	515	604	0	474	26	1	
5	0	0	0	0	508	595	0	468	26	1	
6	0	0	0	0	512	606	0	463	26	1	
7	0	0	0	0	502	618	0	463	26	1	
8	0	0	0	0	503	617	0	473	26	1	
9	0	0	0	0	511	626	0	485	26	1	
10	0	0	0	0	511	638	0	493	26	1	
11	0	0	0	0	512	644	0	513	26	1	
12	0	0	0	0	508	643	0	518	26	1	
13	0	0	0	0	507	640	0	526	26	1	
14	0	0	0	0	504	641	0	532	26	1	
15	0	0	0	0	503	649	0	530	26	1	
0	0	0	0	0	508	652	0	540	26	1	
1	0	0	0	0	516	650	0	534	26	1	
2	0	0	0	0	509	655	0	517	26	1	
3	0	0	0	0	506	665	0	502	26	1	
4	0	0	0	0	507	670	0	488	26	1	
5	0	0	0	0	506	665	0	479	26	1	
6	0	0	0	0	508	654	0	472	26	1	
7	0	0	0	0	511	640	0	468	26	1	
8	0	0	0	0	505	641	0	467	26	1	
9	0	0	0	0	508	647	0	474	26	1	
10	0	0	0	0	507	646	0	496	26	1	
11	0	0	0	0	501	647	0	503	26	1	
12	0	0	0	0	511	652	0	499	26	1	
13	0	0	0	0	507	653	0	491	26	1	
14	0	0	0	0	506	656	0	483	26	1	
15	0	0	0	0	511	665	0	483	26	1	
0	0	0	0	0	513	655	0	498	26	1	
1	0	0	0	0	507	648	0	509	26	1	
2	0	0	0	0	507	645	0	507	26	1	
3	0	0	0	0	515	645	0	499	26	1	
4	0	0	0	0	513	645	0	494	26	1	
5	0	0	0	0	511	651	0	489	26	1	
6	0	0	0	0	515	654	0	486	26	1	
7	0	0	0	0	502	643	0	483	26	1	
8	0	0	0	0	504	643	0	487	26	1	
9	0	0	0	0	508	651	0	508	26	1	
10	0	0	0	0	507	666	0	515	26	1	
11	0	0	0	0	507	668	0	512	26	1	
12	0	0	0	0	500	664	0	515	26	1	
13	0	0	0	0	503	661	0	513	26	1	
14	0	0	0	0	508	649	0	507	26	1	
15	0	0	0	0	510	633	0	500	26	1	
0	0	0	0	0	506	628	0	495	26	1	
1	0	0	0	0	511	636	0	502	26	1	
2	0	0	0	0	508	647	0	524	26	1	
3	0	0	0	0	508	644	0	527	26	1	
4	0	0	0	0	511	638	0	523	26	1	
5	0	0	0	0	517	636	0	513	26	1	
6	0	0	0	0	509	634	0	504	26	1	
7	0	0	0	0	509	627	0	499	26	1	
8	0	0	0	0	502	629	0	496	26	1	
9	0	0	0	0	512	627	0	514	26	1	
10	0	0	0	0	508	624	0	526	26	1	
11	0	0	0	0	510	615	0	524	26	1	
12	0	0	0	0	504	612	0	517	26	1	
13	0	0	0	0	506	622	0	509	26	1	
14	0	0	0	0	515	631	0	504	26	1	
15	0	0	0	0	507	630	0	499	26	1	
0	0	0	0	0	501	624	0	503	26	1	
1	0	0	0	0	504	620	0	518	26	1	
2	0	0	0	0	504	622	0	520	26	1	
3	0	0	0	0	510	619	0	515	26	1	
4	0	0	0	0	510	609	0	508	26	1	
5	0	0	0	0	508	608	0	501	26	1	
6	0	0	0	0	504	611	0	496	26	1	
7	0	0	0	0	507	610	0	494	26	1	
8	0	0	0	0	507	608	0	492	26	1	
9	0	0	0	0	504	600	0	507	26	1	
10	0	0	0	0	509	595	0	527	26	1	
11	0	0	0	0	512	593	0	532	26	1	
12	0	0	0	0	509	591	0	528	26	1	
13	0	0	0	0	506	583	0	531	26	1	
14	0	0	0	0	511	572	0	524	26	1	
15	0	0	0	0	510	562	0	528	26	1	
0	0	0	0	0	509	570	0	546	26	1	
1	0	0	0	0	509	575	0	560	26	1	
2	0	0	0	0	508	554	0	537	26	1	
3	0	0	0	0	503	542	0	524	26	1	
4	0	0	0	0	505	534	0	514	26	1	
5	0	0	0	0	505	536	0	507	26	1	
6	0	0	0	0	508	536	0	504	26	1	
7	0	0	0	0	511	538	0	500	26	1	
8	0	0	0	0	511	541	0	497	26	1	
9	0	0	0	0	503	542	0	507	26	1	
10	0	0	0	0	511	534	0	531	26	1	
11	0	0	0	0	505	518	0	537	26	1	
12	0	0	0	0	504	513	0	531	26	1	
13	0	0	0	0	508	520	0	523	26	1	
14	0	0	0	0	515	517	0	514	26	1	
15	0	0	0	0	510	512	0	513	26	1	
0	0	0	0	0	508	516	0	529	26	1	
1	0	0	0	0	510	519	0	534	26	1	
2	0	0	0	0	505	516	0	529	26	1	
3	0	0	0	0	510	508	0	534	26	1	
4	0	0	0	0	508	504	0	511	26	1	
5	0	0	0	0	512	503	0	504	26	1	
6	0	0	0	0	506	508	0	496	26	1	
7	0	0	0	0	503	511	0	492	26	1	
8	0	0	0	0	503	510	0	487	26	1	
9	0	0	0	0	515	501	0	483	26	1	
10	0	0	0	0	509	494	0	483	26	1	
11	0	0	0	0	505	492	0	483	26	1	
12	0	0	0	0	508	490	0	483	26	1	
13	0	0	0	0	509	487	0	487	26	1	
14	0	0	0	0	504	489	0	485	26	1	
15	0	0	0	0	500	494	0	484	26	1	
0	0	0	0	0	514	494	0	480	26	1	
1	0	0	0	0	511	478	0	476	26	1	
2	0	0	0	0	507	463	0	476	26	1	
3	0	0	0	0	507	473	0	493	26	1	
4	0	0	0	0	507	482	0	480	26	1	
5	0	0	0	0	504	484	0	480	26	1	
6	0	0	0	0	506	483	0	480	26	1	
7	0	0	0	0	513	480	0	477	26	1	
8	0	0	0	0	512	475	0	477	26	1	
9	0	0	0	0	519	470	0	474	26	1	
10	0	0	0	0	504	474	0	474	26	1	
11	0	0	0	0	508	484	0	473	26	1	
12	0	0	0	0	508	495	0	488	26	1	
13	0	0	0	0	500	490	0	527	26	1	
14	0	0	0	0	511	477	0	522	26	1	
15	0	0	0	0	509	475	0	513	26	1	
0	0	0	0	0	501	479	0	499	26	1	
1	0	0	0	0	511	485	0	503	26	1	
2	0	0	0	0	514	491	0	537	26	1	
3	0	0	0	0	505	493	0	530	26	1	
4	0	0	0	0	505	490	0	548	26	1	
5	0	0	0	0	511	489	0	552	26	1	
6	0	0	0	0	506	478	0	540	26	1	
7	0	0	0	0	507	472	0	526	26	1	
8	0	0	0	0	510	472	0	513	26	1	
9	0	0	0	0	510	478	0	526	26	1	
10	0	0	0	0	513	491	0	537	26	1	
11	0	0	0	0	501	489	0	543	26	1	
12	0	0	0	0	518	481	0	554	26	1	
13	0	0	0	0	505	484	0	551	26	1	
14	0	0	0	0	498	489	0	556	26	1	
15	0	0	0	0	510	489	0	547	26	1	
0	0	0	0	0	512	492	0	537	26	1	
1	0	0	0	0	505	492	0	525	26	1	
2	0	0	0	0	508	489	0	512	26	1	
3	0	0	0	0	510	482	0	500	26	1	
4	0	0	0	0	507	468	0	489	26	1	
5	0	0	0	0	501	467	0	483	26	1	
6	0	0	0	0	512	479	0	479	26	1	
7	0	0	0	0	514	485	0	477	26	1	
8	0	0	0	0	508	484	0	473	26	1	
9	0	0	0	0	502	483	0	473	26	1	
10	0	0	0	0	510	481	0	472	26	1	
11	0	0	0	0	512	476	0	478	26	1	
12	0	0	0	0	510	476	0	502	26	1	
13	0	0	0	0	508	480	0	513	26	1	
14	0	0	0	0	511	485	0	526	26	1	
15	0	0	0	0	512	485	0	534	26	1	
0	0	0	0	0	506	474	0	534	26	1	
1	0	0	0	0	508	472	0	504	26	1	
2	0	0	0	0	504	480	0	491	26	1	
3	0	0	0	0	504	487	0	480	26	1	
4	0	0	0	0	505	484	0	473	26	1	
5	0	0	0	0	503	478	0	469	26	1	
6	0	0	0	0	505	468	0	469	26	1	
7	0	0	0	0	520	463	0	466	26	1	
8	0	0	0	0	510	469	0	464	26	1	
9	0	0	0	0	505	475	0	461	26	1	
10	0	0	0	0	505	471	0	464	26	1	
11	0	0	0	0	512	453	0	486	26	1	
12	0	0	0	0	509	454	0	493	26	1	
13	0	0	0	0	512	475	0	505	26	1	
14	0	0	0	0	511	485	0	515	26	1	
15	0	0	0	0	512	483	0	511	26	1	
0	0	0	0	0	505	484	0	505	26	1	
1	0	0	0	0	510	488	0	492	26	1	
2	0	0	0	0	504	495	0	478	26	1	
3	0	0	0	0	507	498	0	466	26	1	
4	0	0	0	0	517	503	0	460	26	1	
5	0	0	0	0	510	498	0	467	26	1	
6	0	0	0	0	508	487	0	452	26	1	
7	0	0	0	0	510	483	0	449	26	1	
8	0	0	0	0	511	484	0	448	26	1	
9	0	0	0	0	507	484	0	448	26	1	
10	0	0	0	0	501	484	0	451	26	1	
11	0	0	0	0	509	488	0	473	26	1	
12	0	0	0	0	507	491	0	487	26	1	
13	0	0	0	0	510	489	0	487	26	1	
14	0	0	0	0	501	487	0	488	26	1	
15	0	0	0	0	511	487	0	505	26	1	
0	0	0	0	0	512	485	0	508	26	1	
1	0	0	0	0	509	482	0	497	26	1	
2	0	0	0	0	512	482	0	486	26	1	
3	0	0	0	0	505	477	0	476	26	1	
4	0	0	0	0	504	477	0	468	26	1	
5	0	0	0	0	507	483	0	461	26	1	
6	0	0	0	0	515	486	0	460	26	1	
7	0	0	0	0	511	491	0	466	26	1	
8	0	0	0	0	509	486	0	463	26	1	
9	0	0	0	0	505	477	0	483	26	1	
10	0	0	0	0	507	479	0	490	26	1	
11	0	0	0	0	506	483	0	486	26	1	
12	0	0	0	0	515	479	0	488	26	1	
13	0	0	0	0	507	481	0	488	26	1	
14	0	0	0	0	508	483	0	483	26	1	
15	0	0	0	0	509	483	0	477	26	1	
0	0	0	0	0	506	481	0	472	26	1	
1	0	0	0	0	512	481	0	479	26	1	
2	0	0	0	0	501	481	0	498	26	1	
3	0	0	0	0	510	478	0	503	26	1	
4	0	0	0	0	510	484	0	519	26	1	
5	0	0	0	0	506	496	0	536	26	1	
6	0	0	0	0	502	500	0	529	26	1	
7	0	0	0	0	504	494	0	537	26	1	
8	0	0	0	0	508	497	0	527	26	1	
9	0	0	0	0	503	505	0	509	26	1	
10	0	0	0	0	510	512	0	494	26	1	
11	0	0	0	0	512	510	0	481	26	1	
12	0	0	0	0	513	508	0	474	26	1	
13	0	0	0	0	508	505	0	470	26	1	
14	0	0	0	0	507	493	0	467	26	1	
15	0	0	0	0	509	483	0	467	26	1	
0	0	0	0	0	511	487	0	480	26	1	
1	0	0	0	0	505	487	0	496	26	1	
2	0	0	0	0	505	473	0	501	26	1	
3	0	0	0	0	508	463	0	496	26	1	
4	0	0	0	0	511	471	0	489	26	1	
5	0	0	0	0	508	484	0	482	26	1	
6	0	0	0	0	508	493	0	479	26	1	
7	0	0	0	0	508	491	0	476	26	1	
8	0	0	0	0	510	486	0	473	26	1	
9	0	0	0	0	505	488	0	488	26	1	
10	0	0	0	0	511	496	0	505	26	1	
11	0	0	0	0	503	503	0	508	26	1	
12	0	0	0	0	507	505	0	512	26	1	
13	0	0	0	0	510	501	0	506	26	1	
14	0	0	0	0	514	495	0	499	26	1	
15	0	0	0	0	512	486	0	489	26	1	
0	0	0	0	0	508	481	0	487	26	1	
1	0	0	0	0	510	481	0	508	26	1	
2	0	0	0	0	507	479	0	516	26	1	
3	0	0	0	0	510	473	0	509	26	1	
4	0	0	0	0	504	475	0	499	26	1	
5	0	0	0	0	510	481	0	491	26	1	
6	0	0	0	0	505	485	0	484	26	1	
7	0	0	0	0	512	490	0	478	26	1	
8	0	0	0	0	513	494	0	488	26	1	
9	0	0	0	0	499	489	0	503	26	1	
10	0	0	0	0	510	487	0	501	26	1	
11	0	0	0	0	510	486	0	495	26	1	
12	0	0	0	0	505	487	0	488	26	1	
13	0	0	0	0	511	480	0	481	26	1	
14	0	0	0	0	504	482	0	476	26	1	
15	0	0	0	0	507	490	0	475	26	1	
0	0	0	0	0	517	495	0	479	26	1	
1	0	0	0	0	504	486	0	498	26	1	
2	0	0	0	0	508	467	0	514	26	1	
3	0	0	0	0	506	462	0	513	26	1	
4	0	0	0	0	503	464	0	507	26	1	
5	0	0	0	0	508	472	0	498	26	1	
6	0	0	0	0	507	487	0	493	26	1	
7	0	0	0	0	513	491	0	496	26	1	
8	0	0	0	0	520	480	0	493	26	1	
9	0	0	0	0	506	476	0	508	26	1	
10	0	0	0	0	511	478	0	510	26	1	
11	0	0	0	0	503	480	0	507	26	1	
12	0	0	0	0	507	482	0	510	26	1	
13	0	0	0	0	507	483	0	510	26	1	
14	0	0	0	0	502	489	0	517	26	1	
15	0	0	0	0	508	495	0	497	26	1	
0	0	0	0	0	505	491	0	491	26	1	
1	0	0	0	0	507	485	0	486	26	1	
2	0	0	0	0	507	484	0	494	26	1	
3	0	0	0	0	507	479	0	517	26	1	
4	0	0	0	0	511	482	0	524	26	1	
5	0	0	0	0	510	494	0	519	26	1	
6	0	0	0	0	503	509	0	510	26	1	
7	0	0	0	0	511	514	0	501	26	1	
8	0	0	0	0	509	509	0	495	26	1	
9	0	0	0	0	512	516	0	494	26	1	
10	0	0	0	0	510	528	0	514	26	1	
11	0	0	0	0	508	525	0	527	26	1	
12	0	0	0	0	511	520	0	526	26	1	
13	0	0	0	0	509	508	0	519	26	1	
14	0	0	0	0	509	496	0	518	26	1	
15	0	0	0	0	505	494	0	501	26	1	
0	0	0	0	0	507	488	0	511	26	1	
1	0	0	0	0	506	489	0	522	26	1	
2	0	0	0	0	510	488	0	521	26	1	
3	0	0	0	0	510	479	0	514	26	1	
4	0	0	0	0	513	477	0	508	26	1	
5	0	0	0	0	508	480	0	503	26	1	
6	0	0	0	0	502	485	0	491	26	1	
7	0	0	0	0	512	485	0	488	26	1	
8	0	0	0	0	511	483	0	486	26	1	
9	0	0	0	0	507	488	0	503	26	1	
10	0	0	0	0	508	495	0	516	26	1	
11	0	0	0	0	502	500	0	516	26	1	
12	0	0	0	0	507	500	0	515	26	1	
13	0	0	0	0	507	499	0	515	26	1	
14	0	0	0	0	507	504	0	508	26	1	
15	0	0	0	0	503	514	0	518	26	1	
0	0	0	0	0	506	524	0	529	26	1	
1	0	0	0	0	509	528	0	527	26	1	
2	0	0	0	0	510	530	0	519	26	1	
3	0	0	0	0	508	536	0	509	26	1	
4	0	0	0	0	505	533	0	501	26	1	
5	0	0	0	0	509	524	0	493	26	1	
6	0	0	0	0	512	517	0	490	26	1	
7	0	0	0	0	508	519	0	488	26	1	
8	0	0	0	0	508	524	0	488	26	1	
9	0	0	0	0	504	523	0	505	26	1	
10	0	0	0	0	511	524	0	530	26	1	
11	0	0	0	0	508	523	0	536	26	1	
12	0	0	0	0	503	522	0	530	26	1	
13	0	0	0	0	499	515	0	520	26	1	
14	0	0	0	0	506	507	0	511	26	1	
15	0	0	0	0	508	510	0	516	26	1	
0	0	0	0	0	513	519	0	528	26	1	
1	0	0	0	0	512	523	0	525	26	1	
2	0	0	0	0	509	515	0	521	26	1	
3	0	0	0	0	504	510	0	511	26	1	
4	0	0	0	0	516	504	0	503	26	1	
5	0	0	0	0	508	513	0	499	26	1	
6	0	0	0	0	510	520	0	496	26	1	
7	0	0	0	0	504	506	0	495	26	1	
8	0	0	0	0	505	496	0	493	26	1	
9	0	0	0	0	512	497	0	518	26	1	
10	0	0	0	0	503	507	0	529	26	1	
11	0	0	0	0	512	519	0	535	26	1	
12	0	0	0	0	513	529	0	529	26	1	
13	0	0	0	0	508	527	0	529	26	1	
14	0	0	0	0	503	515	0	525	26	1	
15	0	0	0	0	508	510	0	522	26	1	
0	0	0	0	0	509	502	0	539	26	1	
1	0	0	0	0	508	501	0	542	26	1	
2	0	0	0	0	513	507	0	533	26	1	
3	0	0	0	0	509	511	0	518	26	1	
4	0	0	0	0	508	518	0	508	26	1	
5	0	0	0	0	507	515	0	497	26	1	
6	0	0	0	0	516	514	0	488	26	1	
7	0	0	0	0	510	514	0	481	26	1	
8	0	0	0	0	505	514	0	477	26	1	
9	0	0	0	0	512	513	0	479	26	1	
10	0	0	0	0	513	510	0	509	26	1	
11	0	0	0	0	499	508	0	513	26	1	
12	0	0	0	0	508	511	0	510	26	1	
13	0	0	0	0	507	508	0	502	26	1	
14	0	0	0	0	503	496	0	496	26	1	
15	0	0	0	0	506	495	0	491	26	1	
0	0	0	0	0	514	495	0	507	26	1	
1	0	0	0	0	513	494	0	514	26	1	
2	0	0	0	0	512	493	0	512	26	1	
3	0	0	0	0	508	493	0	503	26	1	
4	0	0	0	0	507	498	0	496	26	1	
5	0	0	0	0	508	496	0	489	26	1	
6	0	0	0	0	501	484	0	483	26	1	
7	0	0	0	0	507	470	0	478	26	1	
8	0	0	0	0	504	470	0	482	26	1	
9	0	0	0	0	506	473	0	503	26	1	
10	0	0	0	0	512	473	0	509	26	1	
11	0	0	0	0	511	477	0	504	26	1	
12	0	0	0	0	512	483	0	506	26	1	
13	0	0	0	0	515	487	0	503	26	1	
14	0	0	0	0	502	485	0	495	26	1	
15	0	0	0	0	508	486	0	487	26	1	
0	0	0	0	0	512	486	0	479	26	1	
1	0	0	0	0	508	480	0	484	26	1	
2	0	0	0	0	506	480	0	504	26	1	
3	0	0	0	0	507	480	0	523	26	1	
4	0	0	0	0	511	480	0	500	26	1	
5	0	0	0	0	504	484	0	491	26	1	
6	0	0	0	0	508	485	0	483	26	1	
7	0	0	0	0	510	481	0	477	26	1	
8	0	0	0	0	499	481	0	471	26	1	
9	0	0	0	0	509	485	0	466	26	1	
10	0	0	0	0	502	489	0	483	26	1	
11	0	0	0	0	516	489	0	501	26	1	
12	0	0	0	0	516	489	0	504	26	1	
13	0	0	0	0	505	494	0	499	26	1	
14	0	0	0	0	512	494	0	512	26	1	
15	0	0	0	0	512	487	0	515	26	1	
0	0	0	0	0	504	475	0	506	26	1	
1	0	0	0	0	512	483	0	496	26	1	
2	0	0	0	0	505	502	0	499	26	1	
3	0	0	0	0	509	504	0	477	26	1	
4	0	0	0	0	499	492	0	471	26	1	
5	0	0	0	0	507	487	0	467	26	1	
6	0	0	0	0	503	488	0	467	26	1	
7	0	0	0	0	506	485	0	465	26	1	
8	0	0	0	0	507	476	0	465	26	1	
9	0	0	0	0	504	473	0	482	26	1	
10	0	0	0	0	505	482	0	516	26	1	
11	0	0	0	0	516	492	0	506	26	1	
12	0	0	0	0	512	497	0	502	26	1	
13	0	0	0	0	510	502	0	504	26	1	
14	0	0	0	0	511	505	0	496	26	1	
15	0	0	0	0	503	511	0	500	26	1	
0	0	0	0	0	506	510	0	514	26	1	
1	0	0	0	0	505	506	0	515	26	1	
2	0	0	0	0	509	502	0	504	26	1	
3	0	0	0	0	508	493	0	492	26	1	
4	0	0	0	0	505	491	0	483	26	1	
5	0	0	0	0	502	494	0	479	26	1	
6	0	0	0	0	508	497	0	473	26	1	
7	0	0	0	0	509	504	0	471	26	1	
8	0	0	0	0	508	511	0	468	26	1	
9	0	0	0	0	512	515	0	482	26	1	
10	0	0	0	0	507	511	0	503	26	1	
11	0	0	0	0	509	503	0	509	26	1	
12	0	0	0	0	517	506	0	504	26	1	
13	0	0	0	0	512	508	0	496	26	1	
14	0	0	0	0	512	516	0	488	26	1	
15	0	0	0	0	504	528	0	487	26	1	
0	0	0	0	0	511	540	0	504	26	1	
1	0	0	0	0	508	552	0	511	26	1	
2	0	0	0	0	511	564	0	520	26	1	
3	0	0	0	0	504	577	0	496	26	1	
4	0	0	0	0	504	594	0	488	26	1	
5	0	0	0	0	508	610	0	483	26	1	
6	0	0	0	0	507	630	0	479	26	1	
7	0	0	0	0	511	652	0	476	26	1	
8	0	0	0	0	510	671	0	475	26	1	
9	0	0	0	0	507	688	0	487	26	1	
10	0	0	0	0	510	706	0	504	26	1	
11	0	0	0	0	513	723	0	512	26	1	
12	0	0	0	0	508	737	0	508	26	1	
13	0	0	0	0	502	742	0	508	26	1	
14	0	0	0	0	511	747	0	505	26	1	
15	0	0	0	0	510	758	0	505	26	1	
0	0	0	0	0	511	771	0	516	26	1	
1	0	0	0	0	507	773	0	527	26	1	
2	0	0	0	0	504	782	0	520	26	1	
3	0	0	0	0	504	791	0	509	26	1	
4	0	0	0	0	508	806	0	498	26	1	
5	0	0	0	0	506	816	0	488	26	1	
6	0	0	0	0	513	803	0	481	26	1	
7	0	0	0	0	508	782	0	475	26	1	
8	0	0	0	0	510	766	0	478	26	1	
9	0	0	0	0	509	741	0	496	26	1	
10	0	0	0	0	508	708	0	502	26	1	
11	0	0	0	0	507	680	0	517	26	1	
12	0	0	0	0	508	680	0	528	26	1	
13	0	0	0	0	504	684	0	531	26	1	
14	0	0	0	0	507	672	0	543	26	1	
15	0	0	0	0	507	640	0	534	26	1	
0	0	0	0	0	510	604	0	516	26	1	
1	0	0	0	0	507	563	0	496	26	1	
2	0	0	0	0	508	530	0	484	26	1	
3	0	0	0	0	513	497	0	478	26	1	
4	0	0	0	0	508	476	0	474	26	1	
5	0	0	0	0	513	455	0	473	26	1	
6	0	0	0	0	510	433	0	472	26	1	
7	0	0	0	0	516	430	0	472	26	1	
8	0	0	0	0	504	422	0	475	26	1	
9	0	0	0	0	506	407	0	496	26	1	
10	0	0	0	0	503	395	0	511	26	1	
11	0	0	0	0	508	393	0	528	26	1	
12	0	0	0	0	504	393	0	512	26	1	
13	0	0	0	0	503	384	0	513	26	1	
14	0	0	0	0	510	380	0	507	26	1	
15	0	0	0	0	511	380	0	515	26	1	
0	0	0	0	0	507	372	0	529	26	1	
1	0	0	0	0	511	360	0	527	26	1	
2	0	0	0	0	508	368	0	517	26	1	
3	0	0	0	0	507	377	0	506	26	1	
4	0	0	0	0	510	377	0	495	26	1	
5	0	0	0	0	505	370	0	490	26	1	
6	0	0	0	0	505	375	0	484	26	1	
7	0	0	0	0	504	386	0	483	26	1	
8	0	0	0	0	507	390	0	480	26	1	
9	0	0	0	0	508	391	0	495	26	1	
10	0	0	0	0	510	392	0	520	26	1	
11	0	0	0	0	511	397	0	524	26	1	
12	0	0	0	0	512	398	0	519	26	1	
13	0	0	0	0	503	394	0	511	26	1	
14	0	0	0	0	509	400	0	503	26	1	
15	0	0	0	0	508	403	0	508	26	1	
0	0	0	0	0	509	405	0	524	26	1	
1	0	0	0	0	508	408	0	521	26	1	
2	0	0	0	0	510	417	0	515	26	1	
3	0	0	0	0	505	424	0	507	26	1	
4	0	0	0	0	510	427	0	500	26	1	
5	0	0	0	0	506	432	0	496	26	1	
6	0	0	0	0	507	432	0	495	26	1	
7	0	0	0	0	511	421	0	491	26	1	
8	0	0	0	0	512	421	0	488	26	1	
9	0	0	0	0	502	430	0	496	26	1	
10	0	0	0	0	505	438	0	519	26	1	
11	0	0	0	0	500	436	0	525	26	1	
12	0	0	0	0	512	435	0	519	26	1	
13	0	0	0	0	509	439	0	521	26	1	
14	0	0	0	0	510	440	0	516	26	1	
15	0	0	0	0	506	447	0	513	26	1	
0	0	0	0	0	504	449	0	532	26	1	
1	0	0	0	0	509	450	0	542	26	1	
2	0	0	0	0	507	444	0	546	26	1	
3	0	0	0	0	512	434	0	556	26	1	
4	0	0	0	0	508	436	0	546	26	1	
5	0	0	0	0	507	438	0	532	26	1	
6	0	0	0	0	508	441	0	538	26	1	
7	0	0	0	0	512	448	0	536	26	1	
8	0	0	0	0	513	455	0	523	26	1	
9	0	0	0	0	513	462	0	508	26	1	
10	0	0	0	0	503	467	0	497	26	1	
11	0	0	0	0	503	470	0	507	26	1	
12	0	0	0	0	510	471	0	483	26	1	
13	0	0	0	0	509	480	0	479	26	1	
14	0	0	0	0	508	486	0	479	26	1	
15	0	0	0	0	508	488	0	479	26	1	
0	0	0	0	0	503	491	0	481	26	1	
1	0	0	0	0	504	484	0	498	26	1	
2	0	0	0	0	512	475	0	520	26	1	
3	0	0	0	0	504	476	0	526	26	1	
4	0	0	0	0	512	490	0	522	26	1	
5	0	0	0	0	509	494	0	513	26	1	
6	0	0	0	0	510	494	0	515	26	1	
7	0	0	0	0	511	491	0	509	26	1	
8	0	0	0	0	507	485	0	522	26	1	
9	0	0	0	0	505	475	0	519	26	1	
10	0	0	0	0	509	475	0	511	26	1	
11	0	0	0	0	502	478	0	516	26	1	
12	0	0	0	0	508	483	0	513	26	1	
13	0	0	0	0	505	486	0	509	26	1	
14	0	0	0	0	508	486	0	504	26	1	
15	0	0	0	0	508	487	0	498	26	1	
0	0	0	0	0	502	490	0	494	26	1	
1	0	0	0	0	504	485	0	490	26	1	
2	0	0	0	0	509	482	0	497	26	1	
3	0	0	0	0	512	483	0	519	26	1	
4	0	0	0	0	511	480	0	527	26	1	
5	0	0	0	0	504	479	0	523	26	1	
6	0	0	0	0	510	476	0	514	26	1	
7	0	0	0	0	511	484	0	504	26	1	
8	0	0	0	0	506	499	0	500	26	1	
9	0	0	0	0	504	506	0	514	26	1	
10	0	0	0	0	511	513	0	525	26	1	
11	0	0	0	0	510	510	0	521	26	1	
12	0	0	0	0	507	504	0	513	26	1	
13	0	0	0	0	507	494	0	505	26	1	
14	0	0	0	0	510	491	0	498	26	1	
15	0	0	0	0	504	489	0	491	26	1	
0	0	0	0	0	510	491	0	498	26	1	
1	0	0	0	0	512	494	0	514	26	1	
2	0	0	0	0	503	492	0	515	26	1	
3	0	0	0	0	502	479	0	509	26	1	
4	0	0	0	0	507	475	0	502	26	1	
5	0	0	0	0	510	481	0	498	26	1	
6	0	0	0	0	510	492	0	491	26	1	
7	0	0	0	0	505	498	0	489	26	1	
8	0	0	0	0	505	495	0	487	26	1	
9	0	0	0	0	507	493	0	502	26	1	
10	0	0	0	0	505	496	0	522	26	1	
11	0	0	0	0	516	501	0	527	26	1	
12	0	0	0	0	511	508	0	524	26	1	
13	0	0	0	0	513	507	0	526	26	1	
14	0	0	0	0	498	506	0	520	26	1	
15	0	0	0	0	503	508	0	522	26	1	
0	0	0	0	0	509	508	0	539	26	1	
1	0	0	0	0	508	512	0	555	26	1	
2	0	0	0	0	512	510	0	526	26	1	
3	0	0	0	0	511	496	0	513	26	1	
4	0	0	0	0	507	483	0	501	26	1	
5	0	0	0	0	500	492	0	491	26	1	
6	0	0	0	0	515	512	0	488	26	1	
7	0	0	0	0	505	522	0	484	26	1	
8	0	0	0	0	508	529	0	479	26	1	
9	0	0	0	0	503	535	0	488	26	1	
10	0	0	0	0	505	537	0	511	26	1	
11	0	0	0	0	512	540	0	515	26	1	
12	0	0	0	0	510	535	0	512	26	1	
13	0	0	0	0	510	529	0	502	26	1	
14	0	0	0	0	505	525	0	494	26	1	
15	0	0	0	0	505	527	0	496	26	1	
0	0	0	0	0	508	527	0	514	26	1	
1	0	0	0	0	504	521	0	519	26	1	
2	0	0	0	0	510	511	0	513	26	1	
3	0	0	0	0	508	506	0	506	26	1	
4	0	0	0	0	508	505	0	496	26	1	
5	0	0	0	0	512	519	0	491	26	1	
6	0	0	0	0	507	526	0	486	26	1	
7	0	0	0	0	508	536	0	480	26	1	
8	0	0	0	0	513	539	0	488	26	1	
9	0	0	0	0	506	540	0	505	26	1	
10	0	0	0	0	506	546	0	510	26	1	
11	0	0	0	0	512	545	0	505	26	1	
12	0	0	0	0	506	538	0	507	26	1	
13	0	0	0	0	505	534	0	505	26	1	
14	0	0	0	0	505	535	0	499	26	1	
15	0	0	0	0	499	538	0	493	26	1	
0	0	0	0	0	508	540	0	488	26	1	
1	0	0	0	0	514	540	0	485	26	1	
2	0	0	0	0	511	536	0	492	26	1	
3	0	0	0	0	510	540	0	513	26	1	
4	0	0	0	0	508	551	0	515	26	1	
5	0	0	0	0	503	559	0	508	26	1	
6	0	0	0	0	512	551	0	499	26	1	
7	0	0	0	0	509	543	0	492	26	1	
8	0	0	0	0	510	541	0	498	26	1	
9	0	0	0	0	502	543	0	483	26	1	
10	0	0	0	0	511	551	0	502	26	1	
11	0	0	0	0	510	558	0	514	26	1	
12	0	0	0	0	499	561	0	511	26	1	
13	0	0	0	0	509	568	0	506	26	1	
14	0	0	0	0	505	575	0	497	26	1	
15	0	0	0	0	510	583	0	488	26	1	
0	0	0	0	0	513	580	0	496	26	1	
1	0	0	0	0	508	578	0	504	26	1	
2	0	0	0	0	501	578	0	503	26	1	
3	0	0	0	0	510	581	0	499	26	1	
4	0	0	0	0	515	588	0	491	26	1	
5	0	0	0	0	514	596	0	484	26	1	
6	0	0	0	0	507	594	0	480	26	1	
7	0	0	0	0	515	592	0	478	26	1	
8	0	0	0	0	505	591	0	478	26	1	
9	0	0	0	0	503	588	0	499	26	1	
10	0	0	0	0	508	584	0	511	26	1	
11	0	0	0	0	513	583	0	509	26	1	
12	0	0	0	0	513	588	0	503	26	1	
13	0	0	0	0	511	591	0	497	26	1	
14	0	0	0	0	504	582	0	499	26	1	
15	0	0	0	0	509	576	0	494	26	1	
0	0	0	0	0	504	582	0	500	26	1	
1	0	0	0	0	507	591	0	520	26	1	
2	0	0	0	0	506	601	0	521	26	1	
3	0	0	0	0	509	609	0	514	26	1	
4	0	0	0	0	512	598	0	503	26	1	
5	0	0	0	0	511	592	0	495	26	1	
6	0	0	0	0	508	598	0	490	26	1	
7	0	0	0	0	510	596	0	486	26	1	
8	0	0	0	0	505	594	0	485	26	1	
9	0	0	0	0	498	590	0	498	26	1	
10	0	0	0	0	508	576	0	516	26	1	
11	0	0	0	0	508	570	0	517	26	1	
12	0	0	0	0	509	568	0	511	26	1	
13	0	0	0	0	507	555	0	501	26	1	
14	0	0	0	0	512	547	0	490	26	1	
15	0	0	0	0	509	545	0	497	26	1	
0	0	0	0	0	511	551	0	511	26	1	
1	0	0	0	0	509	558	0	511	26	1	
2	0	0	0	0	512	563	0	503	26	1	
3	0	0	0	0	506	561	0	493	26	1	
4	0	0	0	0	511	558	0	486	26	1	
5	0	0	0	0	505	559	0	483	26	1	
6	0	0	0	0	505	555	0	479	26	1	
7	0	0	0	0	516	556	0	476	26	1	
8	0	0	0	0	505	556	0	475	26	1	
9	0	0	0	0	508	547	0	487	26	1	
10	0	0	0	0	508	535	0	512	26	1	
11	0	0	0	0	508	532	0	518	26	1	
12	0	0	0	0	512	531	0	512	26	1	
13	0	0	0	0	507	531	0	504	26	1	
14	0	0	0	0	512	528	0	494	26	1	
15	0	0	0	0	499	524	0	496	26	1	
0	0	0	0	0	513	526	0	518	26	1	
1	0	0	0	0	513	521	0	527	26	1	
2	0	0	0	0	508	513	0	521	26	1	
3	0	0	0	0	512	505	0	513	26	1	
4	0	0	0	0	504	505	0	504	26	1	
5	0	0	0	0	502	506	0	497	26	1	
6	0	0	0	0	507	505	0	491	26	1	
7	0	0	0	0	509	499	0	486	26	1	
8	0	0	0	0	506	491	0	482	26	1	
9	0	0	0	0	507	490	0	485	26	1	
10	0	0	0	0	508	492	0	511	26	1	
11	0	0	0	0	510	484	0	519	26	1	
12	0	0	0	0	510	485	0	516	26	1	
13	0	0	0	0	515	490	0	508	26	1	
14	0	0	0	0	511	493	0	501	26	1	
15	0	0	0	0	505	485	0	494	26	1	
0	0	0	0	0	509	471	0	486	26	1	
1	0	0	0	0	507	458	0	481	26	1	
2	0	0	0	0	509	451	0	480	26	1	
3	0	0	0	0	511	453	0	478	26	1	
4	0	0	0	0	502	455	0	479	26	1	
5	0	0	0	0	508	462	0	480	26	1	
6	0	0	0	0	505	464	0	480	26	1	
7	0	0	0	0	507	461	0	480	26	1	
8	0	0	0	0	514	465	0	493	26	1	
9	0	0	0	0	508	470	0	473	26	1	
10	0	0	0	0	508	473	0	472	26	1	
11	0	0	0	0	504	475	0	473	26	1	
12	0	0	0	0	505	477	0	475	26	1	
13	0	0	0	0	514	482	0	477	26	1	
14	0	0	0	0	508	478	0	481	26	1	
15	0	0	0	0	509	462	0	482	26	1	
0	0	0	0	0	510	442	0	480	26	1	
1	0	0	0	0	507	435	0	477	26	1	
2	0	0	0	0	510	444	0	478	26	1	
3	0	0	0	0	503	455	0	480	26	1	
4	0	0	0	0	512	464	0	484	26	1	
5	0	0	0	0	505	462	0	485	26	1	
6	0	0	0	0	503	456	0	486	26	1	
7	0	0	0	0	507	454	0	494	26	1	
8	0	0	0	0	508	455	0	516	26	1	
9	0	0	0	0	511	455	0	527	26	1	
10	0	0	0	0	508	464	0	544	26	1	
11	0	0	0	0	515	470	0	555	26	1	
12	0	0	0	0	508	454	0	556	26	1	
13	0	0	0	0	506	437	0	571	26	1	
14	0	0	0	0	503	439	0	570	26	1	
15	0	0	0	0	510	441	0	574	26	1	
0	0	0	0	0	510	445	0	575	26	1	
1	0	0	0	0	505	449	0	569	26	1	
2	0	0	0	0	510	453	0	577	26	1	
3	0	0	0	0	506	455	0	570	26	1	
4	0	0	0	0	512	460	0	555	26	1	
5	0	0	0	0	512	455	0	537	26	1	
6	0	0	0	0	509	448	0	524	26	1	
7	0	0	0	0	507	444	0	515	26	1	
8	0	0	0	0	509	440	0	509	26	1	
9	0	0	0	0	512	434	0	522	26	1	
10	0	0	0	0	517	427	0	541	26	1	
11	0	0	0	0	504	432	0	546	26	1	
12	0	0	0	0	511	441	0	542	26	1	
13	0	0	0	0	506	454	0	542	26	1	
14	0	0	0	0	513	458	0	534	26	1	
15	0	0	0	0	505	457	0	536	26	1	
0	0	0	0	0	504	455	0	550	26	1	
1	0	0	0	0	504	452	0	550	26	1	
2	0	0	0	0	506	454	0	562	26	1	
3	0	0	0	0	507	468	0	563	26	1	
4	0	0	0	0	514	467	0	551	26	1	
5	0	0	0	0	506	464	0	537	26	1	
6	0	0	0	0	509	473	0	527	26	1	
7	0	0	0	0	504	476	0	517	26	1	
8	0	0	0	0	503	465	0	524	26	1	
9	0	0	0	0	512	459	0	536	26	1	
10	0	0	0	0	512	462	0	534	26	1	
11	0	0	0	0	506	458	0	528	26	1	
12	0	0	0	0	511	456	0	520	26	1	
13	0	0	0	0	505	456	0	515	26	1	
14	0	0	0	0	507	453	0	509	26	1	
15	0	0	0	0	510	451	0	507	26	1	
0	0	0	0	0	504	451	0	506	26	1	
1	0	0	0	0	508	450	0	524	26	1	
2	0	0	0	0	509	452	0	538	26	1	
3	0	0	0	0	510	454	0	538	26	1	
4	0	0	0	0	507	455	0	546	26	1	
5	0	0	0	0	511	456	0	520	26	1	
6	0	0	0	0	503	461	0	511	26	1	
7	0	0	0	0	508	468	0	500	26	1	
8	0	0	0	0	504	473	0	489	26	1	
9	0	0	0	0	513	475	0	484	26	1	
10	0	0	0	0	509	480	0	482	26	1	
11	0	0	0	0	506	481	0	483	26	1	
12	0	0	0	0	505	484	0	486	26	1	
13	0	0	0	0	501	489	0	487	26	1	
14	0	0	0	0	508	496	0	489	26	1	
15	0	0	0	0	513	491	0	488	26	1	
0	0	0	0	0	505	482	0	485	26	1	
1	0	0	0	0	515	481	0	483	26	1	
2	0	0	0	0	511	481	0	483	26	1	
3	0	0	0	0	508	476	0	486	26	1	
4	0	0	0	0	510	473	0	489	26	1	
5	0	0	0	0	513	481	0	491	26	1	
6	0	0	0	0	503	475	0	491	26	1	
7	0	0	0	0	505	460	0	489	26	1	
8	0	0	0	0	505	456	0	483	26	1	
9	0	0	0	0	509	463	0	481	26	1	
10	0	0	0	0	511	473	0	481	26	1	
11	0	0	0	0	512	484	0	481	26	1	
12	0	0	0	0	508	494	0	496	26	1	
13	0	0	0	0	504	492	0	522	26	1	
14	0	0	0	0	504	490	0	531	26	1	
15	0	0	0	0	507	486	0	521	26	1	
0	0	0	0	0	508	480	0	507	26	1	
1	0	0	0	0	511	477	0	496	26	1	
2	0	0	0	0	510	479	0	490	26	1	
3	0	0	0	0	512	479	0	488	26	1	
4	0	0	0	0	508	480	0	489	26	1	
5	0	0	0	0	509	482	0	508	26	1	
6	0	0	0	0	511	484	0	532	26	1	
7	0	0	0	0	508	484	0	544	26	1	
8	0	0	0	0	510	485	0	567	26	1	
9	0	0	0	0	501	483	0	566	26	1	
10	0	0	0	0	506	481	0	572	26	1	
11	0	0	0	0	508	484	0	579	26	1	
12	0	0	0	0	503	488	0	575	26	1	
13	0	0	0	0	508	485	0	584	26	1	
14	0	0	0	0	512	486	0	578	26	1	
15	0	0	0	0	511	490	0	577	26	1	
0	0	0	0	0	508	488	0	578	26	1	
1	0	0	0	0	507	481	0	570	26	1	
2	0	0	0	0	508	483	0	561	26	1	
3	0	0	0	0	501	485	0	549	26	1	
4	0	0	0	0	508	478	0	537	26	1	
5	0	0	0	0	511	472	0	527	26	1	
6	0	0	0	0	510	478	0	518	26	1	
7	0	0	0	0	516	479	0	511	26	1	
8	0	0	0	0	510	475	0	507	26	1	
9	0	0	0	0	506	471	0	504	26	1	
10	0	0	0	0	504	469	0	503	26	1	
11	0	0	0	0	504	476	0	504	26	1	
12	0	0	0	0	511	479	0	508	26	1	
13	0	0	0	0	509	476	0	539	26	1	
14	0	0	0	0	508	466	0	547	26	1	
15	0	0	0	0	508	462	0	558	26	1	
0	0	0	0	0	504	471	0	571	26	1	
1	0	0	0	0	506	477	0	563	26	1	
2	0	0	0	0	516	487	0	547	26	1	
3	0	0	0	0	515	494	0	532	26	1	
4	0	0	0	0	504	501	0	523	26	1	
5	0	0	0	0	496	492	0	513	26	1	
6	0	0	0	0	503	473	0	508	26	1	
7	0	0	0	0	505	462	0	504	26	1	
8	0	0	0	0	510	472	0	500	26	1	
9	0	0	0	0	512	488	0	514	26	1	
10	0	0	0	0	512	492	0	531	26	1	
11	0	0	0	0	507	499	0	537	26	1	
12	0	0	0	0	513	502	0	532	26	1	
13	0	0	0	0	509	495	0	532	26	1	
14	0	0	0	0	508	479	0	529	26	1	
15	0	0	0	0	506	462	0	526	26	1	
0	0	0	0	0	508	463	0	543	26	1	
1	0	0	0	0	510	474	0	547	26	1	
2	0	0	0	0	509	484	0	538	26	1	
3	0	0	0	0	512	488	0	526	26	1	
4	0	0	0	0	506	489	0	512	26	1	
5	0	0	0	0	508	481	0	502	26	1	
6	0	0	0	0	508	480	0	493	26	1	
7	0	0	0	0	511	489	0	486	26	1	
8	0	0	0	0	510	492	0	482	26	1	
9	0	0	0	0	510	496	0	485	26	1	
10	0	0	0	0	502	502	0	510	26	1	
11	0	0	0	0	510	496	0	518	26	1	
12	0	0	0	0	500	486	0	514	26	1	
13	0	0	0	0	505	485	0	505	26	1	
14	0	0	0	0	510	492	0	498	26	1	
15	0	0	0	0	512	497	0	494	26	1	
0	0	0	0	0	506	501	0	509	26	1	
1	0	0	0	0	511	503	0	517	26	1	
2	0	0	0	0	504	499	0	513	26	1	
3	0	0	0	0	509	493	0	506	26	1	
4	0	0	0	0	507	493	0	498	26	1	
5	0	0	0	0	512	492	0	492	26	1	
6	0	0	0	0	513	494	0	486	26	1	
7	0	0	0	0	505	497	0	483	26	1	
8	0	0	0	0	511	504	0	489	26	1	
9	0	0	0	0	514	506	0	508	26	1	
10	0	0	0	0	502	501	0	516	26	1	
11	0	0	0	0	502	508	0	512	26	1	
12	0	0	0	0	504	506	0	515	26	1	
13	0	0	0	0	503	492	0	515	26	1	
14	0	0	0	0	509	477	0	510	26	1	
15	0	0	0	0	505	485	0	503	26	1	
0	0	0	0	0	506	504	0	497	26	1	
1	0	0	0	0	512	520	0	492	26	1	
2	0	0	0	0	510	526	0	494	26	1	
3	0	0	0	0	504	521	0	517	26	1	
4	0	0	0	0	515	518	0	524	26	1	
5	0	0	0	0	513	513	0	520	26	1	
6	0	0	0	0	504	504	0	509	26	1	
7	0	0	0	0	504	497	0	500	26	1	
8	0	0	0	0	509	492	0	494	26	1	
9	0	0	0	0	508	495	0	510	26	1	
10	0	0	0	0	515	492	0	520	26	1	
11	0	0	0	0	510	493	0	517	26	1	
12	0	0	0	0	513	501	0	509	26	1	
13	0	0	0	0	511	508	0	499	26	1	
14	0	0	0	0	505	516	0	490	26	1	
15	0	0	0	0	504	526	0	484	26	1	
0	0	0	0	0	505	528	0	504	26	1	
1	0	0	0	0	507	530	0	501	26	1	
2	0	0	0	0	508	533	0	503	26	1	
3	0	0	0	0	507	538	0	497	26	1	
4	0	0	0	0	515	544	0	490	26	1	
5	0	0	0	0	514	542	0	484	26	1	
6	0	0	0	0	507	539	0	481	26	1	
7	0	0	0	0	498	531	0	484	26	1	
8	0	0	0	0	500	524	0	503	26	1	
9	0	0	0	0	510	524	0	512	26	1	
10	0	0	0	0	516	522	0	510	26	1	
11	0	0	0	0	505	520	0	504	26	1	
12	0	0	0	0	499	532	0	498	26	1	
13	0	0	0	0	514	540	0	502	26	1	
14	0	0	0	0	503	530	0	500	26	1	
15	0	0	0	0	505	515	0	508	26	1	
0	0	0	0	0	511	510	0	529	26	1	
1	0	0	0	0	503	512	0	534	26	1	
2	0	0	0	0	507	521	0	527	26	1	
3	0	0	0	0	513	521	0	515	26	1	
4	0	0	0	0	512	519	0	507	26	1	
5	0	0	0	0	504	515	0	499	26	1	
6	0	0	0	0	506	514	0	493	26	1	
7	0	0	0	0	515	512	0	488	26	1	
8	0	0	0	0	505	513	0	487	26	1	
9	0	0	0	0	512	517	0	496	26	1	
10	0	0	0	0	511	521	0	519	26	1	
11	0	0	0	0	508	524	0	529	26	1	
12	0	0	0	0	514	515	0	539	26	1	
13	0	0	0	0	508	501	0	516	26	1	
14	0	0	0	0	508	503	0	509	26	1	
15	0	0	0	0	507	509	0	509	26	1	
0	0	0	0	0	503	514	0	526	26	1	
1	0	0	0	0	509	518	0	531	26	1	
2	0	0	0	0	509	516	0	525	26	1	
3	0	0	0	0	504	519	0	520	26	1	
4	0	0	0	0	505	513	0	514	26	1	
5	0	0	0	0	514	509	0	508	26	1	
6	0	0	0	0	511	507	0	505	26	1	
7	0	0	0	0	515	506	0	502	26	1	
8	0	0	0	0	505	505	0	511	26	1	
9	0	0	0	0	501	503	0	529	26	1	
10	0	0	0	0	508	500	0	536	26	1	
11	0	0	0	0	508	499	0	540	26	1	
12	0	0	0	0	509	499	0	536	26	1	
13	0	0	0	0	508	497	0	532	26	1	
14	0	0	0	0	511	491	0	527	26	1	
15	0	0	0	0	508	486	0	521	26	1	
0	0	0	0	0	501	485	0	514	26	1	
1	0	0	0	0	504	488	0	509	26	1	
2	0	0	0	0	509	499	0	516	26	1	
3	0	0	0	0	508	495	0	539	26	1	
4	0	0	0	0	508	482	0	544	26	1	
5	0	0	0	0	504	487	0	536	26	1	
6	0	0	0	0	507	491	0	526	26	1	
7	0	0	0	0	502	489	0	517	26	1	
8	0	0	0	0	515	489	0	510	26	1	
9	0	0	0	0	514	493	0	505	26	1	
10	0	0	0	0	498	492	0	523	26	1	
11	0	0	0	0	502	497	0	536	26	1	
12	0	0	0	0	510	508	0	533	26	1	
13	0	0	0	0	506	511	0	525	26	1	
14	0	0	0	0	510	512	0	520	26	1	
15	0	0	0	0	516	512	0	512	26	1	
0	0	0	0	0	514	514	0	520	26	1	
1	0	0	0	0	507	524	0	530	26	1	
2	0	0	0	0	507	520	0	530	26	1	
3	0	0	0	0	505	500	0	524	26	1	
4	0	0	0	0	509	499	0	516	26	1	
5	0	0	0	0	507	503	0	510	26	1	
6	0	0	0	0	507	498	0	506	26	1	
7	0	0	0	0	512	494	0	502	26	1	
8	0	0	0	0	512	499	0	502	26	1	
9	0	0	0	0	507	504	0	522	26	1	
10	0	0	0	0	504	510	0	537	26	1	
11	0	0	0	0	509	512	0	536	26	1	
12	0	0	0	0	512	509	0	537	26	1	
13	0	0	0	0	511	508	0	547	26	1	
14	0	0	0	0	504	504	0	530	26	1	
15	0	0	0	0	504	492	0	539	26	1	
0	0	0	0	0	504	484	0	551	26	1	
1	0	0	0	0	508	485	0	545	26	1	
2	0	0	0	0	513	483	0	535	26	1	
3	0	0	0	0	508	478	0	523	26	1	
4	0	0	0	0	508	486	0	512	26	1	
5	0	0	0	0	501	496	0	504	26	1	
6	0	0	0	0	507	513	0	499	26	1	
7	0	0	0	0	509	521	0	495	26	1	
8	0	0	0	0	511	524	0	493	26	1	
9	0	0	0	0	502	527	0	508	26	1	
10	0	0	0	0	510	523	0	530	26	1	
11	0	0	0	0	505	519	0	532	26	1	
12	0	0	0	0	505	513	0	526	26	1	
13	0	0	0	0	510	508	0	515	26	1	
14	0	0	0	0	509	499	0	505	26	1	
15	0	0	0	0	508	495	0	508	26	1	
0	0	0	0	0	508	507	0	520	26	1	
1	0	0	0	0	507	525	0	518	26	1	
2	0	0	0	0	506	533	0	510	26	1	
3	0	0	0	0	510	534	0	502	26	1	
4	0	0	0	0	505	531	0	497	26	1	
5	0	0	0	0	508	537	0	491	26	1	
6	0	0	0	0	511	551	0	491	26	1	
7	0	0	0	0	509	573	0	496	26	1	
8	0	0	0	0	507	591	0	487	26	1	
9	0	0	0	0	510	607	0	498	26	1	
10	0	0	0	0	507	623	0	520	26	1	
11	0	0	0	0	513	638	0	525	26	1	
12	0	0	0	0	502	654	0	517	26	1	
13	0	0	0	0	511	664	0	507	26	1	
14	0	0	0	0	501	671	0	508	26	1	
15	0	0	0	0	499	680	0	517	26	1	
0	0	0	0	0	508	691	0	536	26	1	
1	0	0	0	0	511	702	0	542	26	1	
2	0	0	0	0	508	717	0	532	26	1	
3	0	0	0	0	511	722	0	519	26	1	
4	0	0	0	0	501	725	0	508	26	1	
5	0	0	0	0	502	735	0	497	26	1	
6	0	0	0	0	511	739	0	489	26	1	
7	0	0	0	0	503	736	0	487	26	1	
8	0	0	0	0	514	735	0	495	26	1	
9	0	0	0	0	512	735	0	513	26	1	
10	0	0	0	0	499	731	0	517	26	1	
11	0	0	0	0	508	728	0	512	26	1	
12	0	0	0	0	503	719	0	505	26	1	
13	0	0	0	0	505	708	0	500	26	1	
14	0	0	0	0	505	691	0	495	26	1	
15	0	0	0	0	514	676	0	491	26	1	
0	0	0	0	0	511	664	0	489	26	1	
1	0	0	0	0	509	640	0	505	26	1	
2	0	0	0	0	508	627	0	524	26	1	
3	0	0	0	0	513	622	0	528	26	1	
4	0	0	0	0	509	600	0	521	26	1	
5	0	0	0	0	507	576	0	512	26	1	
6	0	0	0	0	513	552	0	503	26	1	
7	0	0	0	0	508	522	0	508	26	1	
8	0	0	0	0	504	494	0	521	26	1	
9	0	0	0	0	516	470	0	522	26	1	
10	0	0	0	0	505	452	0	513	26	1	
11	0	0	0	0	507	443	0	505	26	1	
12	0	0	0	0	509	435	0	505	26	1	
13	0	0	0	0	503	422	0	508	26	1	
14	0	0	0	0	510	414	0	504	26	1	
15	0	0	0	0	513	398	0	499	26	1	
0	0	0	0	0	511	387	0	495	26	1	
1	0	0	0	0	509	381	0	503	26	1	
2	0	0	0	0	507	380	0	523	26	1	
3	0	0	0	0	509	396	0	526	26	1	
4	0	0	0	0	505	412	0	520	26	1	
5	0	0	0	0	507	423	0	509	26	1	
6	0	0	0	0	511	424	0	499	26	1	
7	0	0	0	0	509	423	0	494	26	1	
8	0	0	0	0	511	420	0	489	26	1	
9	0	0	0	0	507	422	0	488	26	1	
10	0	0	0	0	506	430	0	503	26	1	
11	0	0	0	0	511	427	0	523	26	1	
12	0	0	0	0	507	415	0	525	26	1	
13	0	0	0	0	503	410	0	520	26	1	
14	0	0	0	0	510	416	0	535	26	1	
15	0	0	0	0	504	424	0	538	26	1	
0	0	0	0	0	511	428	0	527	26	1	
1	0	0	0	0	500	429	0	515	26	1	
2	0	0	0	0	506	433	0	504	26	1	
3	0	0	0	0	515	436	0	496	26	1	
4	0	0	0	0	510	435	0	490	26	1	
5	0	0	0	0	505	433	0	487	26	1	
6	0	0	0	0	504	438	0	488	26	1	
7	0	0	0	0	513	447	0	486	26	1	
8	0	0	0	0	511	459	0	487	26	1	
9	0	0	0	0	504	468	0	502	26	1	
10	0	0	0	0	510	473	0	524	26	1	
11	0	0	0	0	512	472	0	526	26	1	
12	0	0	0	0	510	475	0	522	26	1	
13	0	0	0	0	509	476	0	522	26	1	
14	0	0	0	0	506	471	0	515	26	1	
15	0	0	0	0	504	472	0	518	26	1	
0	0	0	0	0	504	474	0	534	26	1	
1	0	0	0	0	508	476	0	533	26	1	
2	0	0	0	0	510	480	0	524	26	1	
3	0	0	0	0	511	484	0	513	26	1	
4	0	0	0	0	512	490	0	501	26	1	
5	0	0	0	0	509	486	0	494	26	1	
6	0	0	0	0	501	479	0	488	26	1	
7	0	0	0	0	507	481	0	484	26	1	
8	0	0	0	0	506	486	0	481	26	1	
9	0	0	0	0	508	487	0	490	26	1	
10	0	0	0	0	510	481	0	515	26	1	
11	0	0	0	0	504	481	0	521	26	1	
12	0	0	0	0	513	486	0	514	26	1	
13	0	0	0	0	505	492	0	505	26	1	
14	0	0	0	0	510	492	0	497	26	1	
15	0	0	0	0	509	495	0	496	26	1	
0	0	0	0	0	513	500	0	512	26	1	
1	0	0	0	0	503	496	0	517	26	1	
2	0	0	0	0	503	489	0	511	26	1	
3	0	0	0	0	512	477	0	504	26	1	
4	0	0	0	0	508	468	0	499	26	1	
5	0	0	0	0	509	477	0	488	26	1	
6	0	0	0	0	512	495	0	483	26	1	
7	0	0	0	0	512	504	0	479	26	1	
8	0	0	0	0	503	507	0	488	26	1	
9	0	0	0	0	502	514	0	504	26	1	
10	0	0	0	0	505	516	0	508	26	1	
11	0	0	0	0	509	513	0	506	26	1	
12	0	0	0	0	514	506	0	514	26	1	
13	0	0	0	0	510	500	0	505	26	1	
14	0	0	0	0	506	510	0	498	26	1	
15	0	0	0	0	510	517	0	492	26	1	
0	0	0	0	0	512	513	0	486	26	1	
1	0	0	0	0	508	505	0	481	26	1	
2	0	0	0	0	509	504	0	490	26	1	
3	0	0	0	0	504	500	0	512	26	1	
4	0	0	0	0	501	496	0	519	26	1	
5	0	0	0	0	508	498	0	513	26	1	
6	0	0	0	0	508	504	0	502	26	1	
7	0	0	0	0	513	504	0	496	26	1	
8	0	0	0	0	506	502	0	497	26	1	
9	0	0	0	0	513	506	0	516	26	1	
10	0	0	0	0	510	507	0	526	26	1	
11	0	0	0	0	505	507	0	527	26	1	
12	0	0	0	0	499	509	0	512	26	1	
13	0	0	0	0	512	504	0	505	26	1	
14	0	0	0	0	511	502	0	500	26	1	
15	0	0	0	0	508	510	0	497	26	1	
0	0	0	0	0	509	512	0	510	26	1	
1	0	0	0	0	512	504	0	526	26	1	
2	0	0	0	0	505	502	0	528	26	1	
3	0	0	0	0	509	497	0	524	26	1	
4	0	0	0	0	508	483	0	515	26	1	
5	0	0	0	0	512	480	0	508	26	1	
6	0	0	0	0	507	486	0	501	26	1	
7	0	0	0	0	505	492	0	499	26	1	
8	0	0	0	0	505	494	0	500	26	1	
9	0	0	0	0	506	496	0	520	26	1	
10	0	0	0	0	512	498	0	535	26	1	
11	0	0	0	0	505	499	0	536	26	1	
12	0	0	0	0	511	495	0	536	26	1	
13	0	0	0	0	504	494	0	524	26	1	
14	0	0	0	0	504	502	0	527	26	1	
15	0	0	0	0	507	507	0	523	26	1	
0	0	0	0	0	508	512	0	529	26	1	
1	0	0	0	0	508	515	0	547	26	1	
2	0	0	0	0	508	514	0	551	26	1	
3	0	0	0	0	506	512	0	541	26	1	
4	0	0	0	0	511	504	0	529	26	1	
5	0	0	0	0	507	504	0	519	26	1	
6	0	0	0	0	507	502	0	510	26	1	
7	0	0	0	0	514	494	0	505	26	1	
8	0	0	0	0	504	499	0	499	26	1	
9	0	0	0	0	504	508	0	513	26	1	
10	0	0	0	0	504	511	0	551	26	1	
11	0	0	0	0	507	513	0	536	26	1	
12	0	0	0	0	511	519	0	530	26	1	
13	0	0	0	0	508	526	0	523	26	1	
14	0	0	0	0	512	522	0	525	26	1	
15	0	0	0	0	513	519	0	533	26	1	
0	0	0	0	0	510	521	0	550	26	1	
1	0	0	0	0	506	524	0	547	26	1	
2	0	0	0	0	513	526	0	538	26	1	
3	0	0	0	0	505	531	0	524	26	1	
4	0	0	0	0	508	538	0	515	26	1	
5	0	0	0	0	509	543	0	507	26	1	
6	0	0	0	0	511	536	0	502	26	1	
7	0	0	0	0	511	532	0	498	26	1	
8	0	0	0	0	500	542	0	495	26	1	
9	0	0	0	0	508	559	0	505	26	1	
10	0	0	0	0	507	574	0	528	26	1	
11	0	0	0	0	508	579	0	534	26	1	
12	0	0	0	0	509	568	0	530	26	1	
13	0	0	0	0	512	551	0	532	26	1	
14	0	0	0	0	508	550	0	527	26	1	
15	0	0	0	0	508	552	0	529	26	1	
0	0	0	0	0	510	558	0	544	26	1	
1	0	0	0	0	510	556	0	549	26	1	
2	0	0	0	0	509	552	0	540	26	1	
3	0	0	0	0	508	548	0	528	26	1	
4	0	0	0	0	512	551	0	519	26	1	
5	0	0	0	0	508	553	0	514	26	1	
6	0	0	0	0	500	556	0	508	26	1	
7	0	0	0	0	502	550	0	504	26	1	
8	0	0	0	0	510	547	0	514	26	1	
9	0	0	0	0	509	547	0	533	26	1	
10	0	0	0	0	512	552	0	540	26	1	
11	0	0	0	0	509	560	0	561	26	1	
12	0	0	0	0	508	557	0	571	26	1	
13	0	0	0	0	507	559	0	560	26	1	
14	0	0	0	0	504	564	0	554	26	1	
15	0	0	0	0	511	563	0	564	26	1	
0	0	0	0	0	512	560	0	558	26	1	
1	0	0	0	0	512	558	0	543	26	1	
2	0	0	0	0	511	547	0	532	26	1	
3	0	0	0	0	511	542	0	537	26	1	
4	0	0	0	0	506	547	0	516	26	1	
5	0	0	0	0	507	556	0	511	26	1	
6	0	0	0	0	512	563	0	507	26	1	
7	0	0	0	0	503	572	0	506	26	1	
8	0	0	0	0	504	578	0	508	26	1	
9	0	0	0	0	504	587	0	529	26	1	
10	0	0	0	0	506	601	0	538	26	1	
11	0	0	0	0	510	602	0	535	26	1	
12	0	0	0	0	510	589	0	536	26	1	
13	0	0	0	0	504	578	0	535	26	1	
14	0	0	0	0	508	568	0	529	26	1	
15	0	0	0	0	509	562	0	521	26	1	
0	0	0	0	0	513	560	0	512	26	1	
1	0	0	0	0	511	546	0	518	26	1	
2	0	0	0	0	505	545	0	539	26	1	
3	0	0	0	0	512	550	0	543	26	1	
4	0	0	0	0	507	552	0	537	26	1	
5	0	0	0	0	507	558	0	529	26	1	
6	0	0	0	0	505	566	0	519	26	1	
7	0	0	0	0	508	575	0	514	26	1	
8	0	0	0	0	509	579	0	511	26	1	
9	0	0	0	0	516	574	0	529	26	1	
10	0	0	0	0	501	571	0	543	26	1	
11	0	0	0	0	511	574	0	543	26	1	
12	0	0	0	0	508	580	0	534	26	1	
13	0	0	0	0	505	582	0	522	26	1	
14	0	0	0	0	509	578	0	512	26	1	
15	0	0	0	0	504	572	0	503	26	1	
0	0	0	0	0	502	568	0	508	26	1	
1	0	0	0	0	512	569	0	527	26	1	
2	0	0	0	0	504	561	0	548	26	1	
3	0	0	0	0	509	548	0	527	26	1	
4	0	0	0	0	508	540	0	521	26	1	
5	0	0	0	0	511	543	0	513	26	1	
6	0	0	0	0	505	540	0	508	26	1	
7	0	0	0	0	511	532	0	504	26	1	
8	0	0	0	0	511	526	0	502	26	1	
9	0	0	0	0	511	527	0	516	26	1	
10	0	0	0	0	513	532	0	533	26	1	
11	0	0	0	0	509	536	0	536	26	1	
12	0	0	0	0	505	542	0	532	26	1	
13	0	0	0	0	511	530	0	534	26	1	
14	0	0	0	0	515	509	0	526	26	1	
15	0	0	0	0	508	506	0	531	26	1	
0	0	0	0	0	505	506	0	546	26	1	
1	0	0	0	0	501	508	0	543	26	1	
2	0	0	0	0	503	503	0	532	26	1	
3	0	0	0	0	510	501	0	519	26	1	
4	0	0	0	0	504	494	0	507	26	1	
5	0	0	0	0	506	497	0	511	26	1	
6	0	0	0	0	502	501	0	496	26	1	
7	0	0	0	0	503	496	0	493	26	1	
8	0	0	0	0	508	499	0	491	26	1	
9	0	0	0	0	507	502	0	501	26	1	
10	0	0	0	0	511	502	0	524	26	1	
11	0	0	0	0	507	496	0	533	26	1	
12	0	0	0	0	505	489	0	527	26	1	
13	0	0	0	0	510	478	0	517	26	1	
14	0	0	0	0	509	469	0	509	26	1	
15	0	0	0	0	509	474	0	508	26	1	
0	0	0	0	0	514	489	0	524	26	1	
1	0	0	0	0	508	491	0	529	26	1	
2	0	0	0	0	510	479	0	524	26	1	
3	0	0	0	0	502	468	0	515	26	1	
4	0	0	0	0	509	463	0	507	26	1	
5	0	0	0	0	508	462	0	499	26	1	
6	0	0	0	0	509	457	0	492	26	1	
7	0	0	0	0	506	456	0	488	26	1	
8	0	0	0	0	513	456	0	484	26	1	
9	0	0	0	0	512	454	0	490	26	1	
10	0	0	0	0	504	460	0	511	26	1	
11	0	0	0	0	508	466	0	519	26	1	
12	0	0	0	0	507	458	0	514	26	1	
13	0	0	0	0	510	458	0	514	26	1	
14	0	0	0	0	504	454	0	511	26	1	
15	0	0	0	0	507	446	0	508	26	1	
0	0	0	0	0	512	450	0	527	26	1	
1	0	0	0	0	509	465	0	536	26	1	
2	0	0	0	0	497	464	0	543	26	1	
3	0	0	0	0	510	456	0	556	26	1	
4	0	0	0	0	514	452	0	551	26	1	
5	0	0	0	0	507	445	0	536	26	1	
6	0	0	0	0	508	445	0	536	26	1	
7	0	0	0	0	507	448	0	540	26	1	
8	0	0	0	0	507	442	0	541	26	1	
9	0	0	0	0	511	441	0	511	26	1	
10	0	0	0	0	511	449	0	499	26	1	
11	0	0	0	0	512	452	0	488	26	1	
12	0	0	0	0	511	454	0	480	26	1	
13	0	0	0	0	511	448	0	476	26	1	
14	0	0	0	0	500	442	0	477	26	1	
15	0	0	0	0	504	446	0	475	26	1	
0	0	0	0	0	508	454	0	473	26	1	
1	0	0	0	0	504	449	0	483	26	1	
2	0	0	0	0	512	436	0	505	26	1	
3	0	0	0	0	510	429	0	510	26	1	
4	0	0	0	0	511	433	0	505	26	1	
5	0	0	0	0	509	444	0	499	26	1	
6	0	0	0	0	508	452	0	491	26	1	
7	0	0	0	0	511	455	0	492	26	1	
8	0	0	0	0	510	455	0	508	26	1	
9	0	0	0	0	512	443	0	513	26	1	
10	0	0	0	0	508	439	0	507	26	1	
11	0	0	0	0	504	443	0	507	26	1	
12	0	0	0	0	504	446	0	505	26	1	
13	0	0	0	0	507	447	0	498	26	1	
14	0	0	0	0	510	448	0	491	26	1	
15	0	0	0	0	502	444	0	483	26	1	
0	0	0	0	0	508	436	0	479	26	1	
1	0	0	0	0	513	435	0	482	26	1	
2	0	0	0	0	508	434	0	504	26	1	
3	0	0	0	0	505	439	0	513	26	1	
4	0	0	0	0	507	444	0	507	26	1	
5	0	0	0	0	510	445	0	500	26	1	
6	0	0	0	0	509	444	0	508	26	1	
7	0	0	0	0	510	446	0	485	26	1	
8	0	0	0	0	510	444	0	480	26	1	
9	0	0	0	0	505	439	0	492	26	1	
10	0	0	0	0	511	435	0	511	26	1	
11	0	0	0	0	510	430	0	512	26	1	
12	0	0	0	0	505	432	0	505	26	1	
13	0	0	0	0	504	435	0	495	26	1	
14	0	0	0	0	505	440	0	486	26	1	
15	0	0	0	0	509	445	0	488	26	1	
0	0	0	0	0	512	445	0	500	26	1	
1	0	0	0	0	511	447	0	497	26	1	
2	0	0	0	0	507	439	0	489	26	1	
3	0	0	0	0	505	431	0	480	26	1	
4	0	0	0	0	507	430	0	477	26	1	
5	0	0	0	0	511	423	0	475	26	1	
6	0	0	0	0	509	407	0	474	26	1	
7	0	0	0	0	507	407	0	473	26	1	
8	0	0	0	0	507	427	0	489	26	1	
9	0	0	0	0	505	442	0	507	26	1	
10	0	0	0	0	504	443	0	517	26	1	
11	0	0	0	0	507	451	0	538	26	1	
12	0	0	0	0	511	459	0	543	26	1	
13	0	0	0	0	517	463	0	533	26	1	
14	0	0	0	0	506	465	0	530	26	1	
15	0	0	0	0	505	464	0	540	26	1	
0	0	0	0	0	506	465	0	534	26	1	
1	0	0	0	0	515	462	0	541	26	1	
2	0	0	0	0	508	455	0	545	26	1	
3	0	0	0	0	502	461	0	546	26	1	
4	0	0	0	0	506	466	0	569	26	1	
5	0	0	0	0	518	470	0	548	26	1	
6	0	0	0	0	515	470	0	553	26	1	
7	0	0	0	0	506	466	0	550	26	1	
8	0	0	0	0	507	463	0	535	26	1	
9	0	0	0	0	511	461	0	518	26	1	
10	0	0	0	0	498	460	0	502	26	1	
11	0	0	0	0	507	457	0	493	26	1	
12	0	0	0	0	504	457	0	485	26	1	
13	0	0	0	0	507	457	0	495	26	1	
14	0	0	0	0	512	455	0	477	26	1	
15	0	0	0	0	511	449	0	476	26	1	
0	0	0	0	0	509	445	0	477	26	1	
1	0	0	0	0	507	452	0	493	26	1	
2	0	0	0	0	507	464	0	516	26	1	
3	0	0	0	0	508	473	0	520	26	1	
4	0	0	0	0	511	463	0	516	26	1	
5	0	0	0	0	511	454	0	506	26	1	
6	0	0	0	0	504	448	0	496	26	1	
7	0	0	0	0	511	446	0	499	26	1	
8	0	0	0	0	506	444	0	511	26	1	
9	0	0	0	0	507	443	0	507	26	1	
10	0	0	0	0	511	438	0	499	26	1	
11	0	0	0	0	508	430	0	503	26	1	
12	0	0	0	0	514	428	0	499	26	1	
13	0	0	0	0	511	435	0	494	26	1	
14	0	0	0	0	502	434	0	489	26	1	
15	0	0	0	0	508	448	0	484	26	1	
0	0	0	0	0	510	467	0	480	26	1	
1	0	0	0	0	512	476	0	478	26	1	
2	0	0	0	0	506	472	0	486	26	1	
3	0	0	0	0	508	468	0	511	26	1	
4	0	0	0	0	505	467	0	523	26	1	
5	0	0	0	0	508	466	0	521	26	1	
6	0	0	0	0	511	475	0	513	26	1	
7	0	0	0	0	504	483	0	504	26	1	
8	0	0	0	0	504	482	0	499	26	1	
9	0	0	0	0	505	469	0	514	26	1	
10	0	0	0	0	502	461	0	525	26	1	
11	0	0	0	0	505	462	0	522	26	1	
12	0	0	0	0	508	467	0	515	26	1	
13	0	0	0	0	507	469	0	505	26	1	
14	0	0	0	0	517	460	0	497	26	1	
15	0	0	0	0	508	454	0	492	26	1	
0	0	0	0	0	512	453	0	497	26	1	
1	0	0	0	0	506	455	0	514	26	1	
2	0	0	0	0	508	452	0	519	26	1	
3	0	0	0	0	503	455	0	536	26	1	
4	0	0	0	0	504	459	0	543	26	1	
5	0	0	0	0	512	460	0	546	26	1	
6	0	0	0	0	502	455	0	556	26	1	
7	0	0	0	0	519	451	0	547	26	1	
8	0	0	0	0	508	451	0	550	26	1	
9	0	0	0	0	506	452	0	547	26	1	
10	0	0	0	0	502	452	0	534	26	1	
11	0	0	0	0	507	452	0	525	26	1	
12	0	0	0	0	508	454	0	522	26	1	
13	0	0	0	0	515	462	0	524	26	1	
14	0	0	0	0	512	471	0	514	26	1	
15	0	0	0	0	502	475	0	504	26	1	
0	0	0	0	0	502	478	0	496	26	1	
1	0	0	0	0	508	476	0	492	26	1	
2	0	0	0	0	512	479	0	509	26	1	
3	0	0	0	0	510	485	0	536	26	1	
4	0	0	0	0	506	487	0	521	26	1	
5	0	0	0	0	510	487	0	513	26	1	
6	0	0	0	0	508	486	0	504	26	1	
7	0	0	0	0	508	487	0	495	26	1	
8	0	0	0	0	507	481	0	487	26	1	
9	0	0	0	0	507	476	0	495	26	1	
10	0	0	0	0	505	471	0	517	26	1	
11	0	0	0	0	508	470	0	524	26	1	
12	0	0	0	0	506	467	0	541	26	1	
13	0	0	0	0	510	461	0	547	26	1	
14	0	0	0	0	514	456	0	552	26	1	
15	0	0	0	0	508	464	0	559	26	1	
0	0	0	0	0	504	474	0	548	26	1	
1	0	0	0	0	511	476	0	532	26	1	
2	0	0	0	0	512	461	0	515	26	1	
3	0	0	0	0	508	459	0	502	26	1	
4	0	0	0	0	507	463	0	496	26	1	
5	0	0	0	0	509	466	0	487	26	1	
6	0	0	0	0	506	474	0	482	26	1	
7	0	0	0	0	513	471	0	475	26	1	
8	0	0	0	0	505	467	0	472	26	1	
9	0	0	0	0	504	475	0	467	26	1	
10	0	0	0	0	502	479	0	470	26	1	
11	0	0	0	0	504	478	0	473	26	1	
12	0	0	0	0	517	477	0	472	26	1	
13	0	0	0	0	507	471	0	473	26	1	
14	0	0	0	0	500	463	0	476	26	1	
15	0	0	0	0	511	463	0	478	26	1	
0	0	0	0	0	513	464	0	475	26	1	
1	0	0	0	0	507	460	0	472	26	1	
2	0	0	0	0	507	463	0	471	26	1	
3	0	0	0	0	515	465	0	473	26	1	
4	0	0	0	0	512	470	0	474	26	1	
5	0	0	0	0	499	474	0	476	26	1	
6	0	0	0	0	507	472	0	476	26	1	
7	0	0	0	0	509	467	0	475	26	1	
8	0	0	0	0	510	467	0	471	26	1	
9	0	0	0	0	513	467	0	468	26	1	
10	0	0	0	0	504	475	0	467	26	1	
11	0	0	0	0	506	484	0	469	26	1	
12	0	0	0	0	509	493	0	483	26	1	
13	0	0	0	0	509	491	0	512	26	1	
14	0	0	0	0	504	484	0	520	26	1	
15	0	0	0	0	504	483	0	512	26	1	
0	0	0	0	0	511	481	0	499	26	1	
1	0	0	0	0	508	483	0	487	26	1	
2	0	0	0	0	506	491	0	482	26	1	
3	0	0	0	0	508	495	0	481	26	1	
4	0	0	0	0	505	489	0	479	26	1	
5	0	0	0	0	509	486	0	497	26	1	
6	0	0	0	0	510	487	0	521	26	1	
7	0	0	0	0	506	482	0	531	26	1	
8	0	0	0	0	511	476	0	550	26	1	
9	0	0	0	0	512	477	0	549	26	1	
10	0	0	0	0	503	480	0	555	26	1	
11	0	0	0	0	504	485	0	560	26	1	
12	0	0	0	0	506	493	0	555	26	1	
13	0	0	0	0	512	495	0	564	26	1	
14	0	0	0	0	500	499	0	560	26	1	
15	0	0	0	0	507	496	0	561	26	1	
0	0	0	0	0	501	492	0	581	26	1	
1	0	0	0	0	511	499	0	552	26	1	
2	0	0	0	0	508	505	0	542	26	1	
3	0	0	0	0	505	508	0	527	26	1	
4	0	0	0	0	519	511	0	511	26	1	
5	0	0	0	0	509	514	0	501	26	1	
6	0	0	0	0	508	521	0	509	26	1	
7	0	0	0	0	510	524	0	488	26	1	
8	0	0	0	0	512	519	0	487	26	1	
9	0	0	0	0	508	510	0	485	26	1	
10	0	0	0	0	504	509	0	484	26	1	
11	0	0	0	0	507	513	0	485	26	1	
12	0	0	0	0	512	511	0	487	26	1	
13	0	0	0	0	499	495	0	509	26	1	
14	0	0	0	0	508	481	0	524	26	1	
15	0	0	0	0	512	488	0	536	26	1	
0	0	0	0	0	515	497	0	549	26	1	
1	0	0	0	0	508	502	0	554	26	1	
2	0	0	0	0	506	498	0	529	26	1	
3	0	0	0	0	506	500	0	513	26	1	
4	0	0	0	0	508	503	0	501	26	1	
5	0	0	0	0	510	504	0	492	26	1	
6	0	0	0	0	499	496	0	489	26	1	
7	0	0	0	0	500	492	0	484	26	1	
8	0	0	0	0	511	492	0	481	26	1	
9	0	0	0	0	509	493	0	491	26	1	
10	0	0	0	0	506	489	0	515	26	1	
11	0	0	0	0	508	484	0	520	26	1	
12	0	0	0	0	510	483	0	518	26	1	
13	0	0	0	0	514	484	0	520	26	1	
14	0	0	0	0	512	481	0	516	26	1	
15	0	0	0	0	511	472	0	514	26	1	
0	0	0	0	0	508	472	0	533	26	1	
1	0	0	0	0	502	472	0	537	26	1	
2	0	0	0	0	511	476	0	530	26	1	
3	0	0	0	0	515	480	0	527	26	1	
4	0	0	0	0	503	482	0	503	26	1	
5	0	0	0	0	503	481	0	495	26	1	
6	0	0	0	0	504	483	0	486	26	1	
7	0	0	0	0	512	487	0	482	26	1	
8	0	0	0	0	502	487	0	489	26	1	
9	0	0	0	0	506	483	0	506	26	1	
10	0	0	0	0	514	484	0	511	26	1	
11	0	0	0	0	504	483	0	508	26	1	
12	0	0	0	0	510	481	0	499	26	1	
13	0	0	0	0	516	480	0	491	26	1	
14	0	0	0	0	505	483	0	486	26	1	
15	0	0	0	0	508	487	0	483	26	1	
0	0	0	0	0	506	489	0	479	26	1	
1	0	0	0	0	509	486	0	496	26	1	
2	0	0	0	0	509	480	0	515	26	1	
3	0	0	0	0	506	480	0	514	26	1	
4	0	0	0	0	507	486	0	508	26	1	
5	0	0	0	0	519	491	0	499	26	1	
6	0	0	0	0	510	490	0	491	26	1	
7	0	0	0	0	503	492	0	493	26	1	
8	0	0	0	0	505	500	0	507	26	1	
9	0	0	0	0	512	497	0	508	26	1	
10	0	0	0	0	510	492	0	499	26	1	
11	0	0	0	0	511	477	0	502	26	1	
12	0	0	0	0	511	472	0	498	26	1	
13	0	0	0	0	505	476	0	492	26	1	
14	0	0	0	0	506	486	0	486	26	1	
15	0	0	0	0	510	492	0	480	26	1	
0	0	0	0	0	510	490	0	477	26	1	
1	0	0	0	0	505	499	0	472	26	1	
2	0	0	0	0	509	508	0	476	26	1	
3	0	0	0	0	511	508	0	499	26	1	
4	0	0	0	0	508	504	0	507	26	1	
5	0	0	0	0	504	500	0	501	26	1	
6	0	0	0	0	510	503	0	491	26	1	
7	0	0	0	0	515	510	0	485	26	1	
8	0	0	0	0	509	509	0	497	26	1	
9	0	0	0	0	505	484	0	496	26	1	
10	0	0	0	0	504	465	0	509	26	1	
11	0	0	0	0	503	469	0	507	26	1	
12	0	0	0	0	507	481	0	500	26	1	
13	0	0	0	0	508	489	0	492	26	1	
14	0	0	0	0	509	494	0	487	26	1	
15	0	0	0	0	508	497	0	480	26	1	
0	0	0	0	0	508	498	0	485	26	1	
1	0	0	0	0	510	491	0	498	26	1	
2	0	0	0	0	504	487	0	499	26	1	
3	0	0	0	0	499	496	0	494	26	1	
4	0	0	0	0	507	511	0	497	26	1	
5	0	0	0	0	508	525	0	480	26	1	
6	0	0	0	0	512	537	0	476	26	1	
7	0	0	0	0	509	550	0	473	26	1	
8	0	0	0	0	513	563	0	469	26	1	
9	0	0	0	0	509	575	0	464	26	1	
10	0	0	0	0	506	584	0	476	26	1	
11	0	0	0	0	501	599	0	498	26	1	
12	0	0	0	0	514	615	0	506	26	1	
13	0	0	0	0	507	625	0	524	26	1	
14	0	0	0	0	508	639	0	530	26	1	
15	0	0	0	0	508	654	0	527	26	1	
0	0	0	0	0	507	665	0	521	26	1	
1	0	0	0	0	502	675	0	512	26	1	
2	0	0	0	0	509	679	0	499	26	1	
3	0	0	0	0	511	687	0	489	26	1	
4	0	0	0	0	505	701	0	481	26	1	
5	0	0	0	0	509	719	0	478	26	1	
6	0	0	0	0	514	727	0	476	26	1	
7	0	0	0	0	507	719	0	476	26	1	
8	0	0	0	0	512	717	0	477	26	1	
9	0	0	0	0	505	721	0	491	26	1	
10	0	0	0	0	502	715	0	483	26	1	
11	0	0	0	0	505	707	0	508	26	1	
12	0	0	0	0	510	703	0	520	26	1	
13	0	0	0	0	513	702	0	516	26	1	
14	0	0	0	0	508	700	0	518	26	1	
15	0	0	0	0	505	695	0	533	26	1	
0	0	0	0	0	507	685	0	546	26	1	
1	0	0	0	0	510	671	0	518	26	1	
2	0	0	0	0	514	652	0	507	26	1	
3	0	0	0	0	504	635	0	508	26	1	
4	0	0	0	0	506	616	0	508	26	1	
5	0	0	0	0	507	590	0	505	26	1	
6	0	0	0	0	512	563	0	500	26	1	
7	0	0	0	0	508	542	0	495	26	1	
8	0	0	0	0	504	528	0	493	26	1	
9	0	0	0	0	514	518	0	493	26	1	
10	0	0	0	0	506	496	0	496	26	1	
11	0	0	0	0	511	460	0	517	26	1	
12	0	0	0	0	510	438	0	531	26	1	
13	0	0	0	0	510	431	0	530	26	1	
14	0	0	0	0	499	427	0	534	26	1	
15	0	0	0	0	503	421	0	552	26	1	
0	0	0	0	0	511	419	0	559	26	1	
1	0	0	0	0	510	424	0	551	26	1	
2	0	0	0	0	504	422	0	540	26	1	
3	0	0	0	0	511	406	0	527	26	1	
4	0	0	0	0	507	394	0	518	26	1	
5	0	0	0	0	510	380	0	510	26	1	
6	0	0	0	0	508	372	0	507	26	1	
7	0	0	0	0	507	381	0	507	26	1	
8	0	0	0	0	504	387	0	507	26	1	
9	0	0	0	0	507	391	0	527	26	1	
10	0	0	0	0	508	398	0	536	26	1	
11	0	0	0	0	508	406	0	533	26	1	
12	0	0	0	0	511	402	0	526	26	1	
13	0	0	0	0	512	390	0	519	26	1	
14	0	0	0	0	512	384	0	530	26	1	
15	0	0	0	0	513	382	0	512	26	1	
0	0	0	0	0	505	389	0	525	26	1	
1	0	0	0	0	504	399	0	539	26	1	
2	0	0	0	0	507	398	0	540	26	1	
3	0	0	0	0	510	390	0	536	26	1	
4	0	0	0	0	512	390	0	529	26	1	
5	0	0	0	0	510	394	0	522	26	1	
6	0	0	0	0	505	399	0	519	26	1	
7	0	0	0	0	506	409	0	516	26	1	
8	0	0	0	0	505	415	0	516	26	1	
9	0	0	0	0	510	416	0	537	26	1	
10	0	0	0	0	499	424	0	555	26	1	
11	0	0	0	0	501	432	0	556	26	1	
12	0	0	0	0	507	445	0	552	26	1	
13	0	0	0	0	508	450	0	552	26	1	
14	0	0	0	0	511	450	0	546	26	1	
15	0	0	0	0	515	445	0	555	26	1	
0	0	0	0	0	505	443	0	566	26	1	
1	0	0	0	0	509	441	0	563	26	1	
2	0	0	0	0	509	443	0	556	26	1	
3	0	0	0	0	511	435	0	554	26	1	
4	0	0	0	0	513	428	0	536	26	1	
5	0	0	0	0	510	439	0	530	26	1	
6	0	0	0	0	500	452	0	527	26	1	
7	0	0	0	0	507	458	0	524	26	1	
8	0	0	0	0	507	455	0	525	26	1	
9	0	0	0	0	504	451	0	542	26	1	
10	0	0	0	0	508	463	0	564	26	1	
11	0	0	0	0	507	474	0	568	26	1	
12	0	0	0	0	510	470	0	563	26	1	
13	0	0	0	0	510	461	0	555	26	1	
14	0	0	0	0	503	455	0	545	26	1	
15	0	0	0	0	503	449	0	547	26	1	
0	0	0	0	0	510	449	0	561	26	1	
1	0	0	0	0	508	457	0	557	26	1	
2	0	0	0	0	509	475	0	548	26	1	
3	0	0	0	0	508	487	0	539	26	1	
4	0	0	0	0	510	487	0	532	26	1	
5	0	0	0	0	512	486	0	529	26	1	
6	0	0	0	0	506	482	0	527	26	1	
7	0	0	0	0	510	473	0	526	26	1	
8	0	0	0	0	514	457	0	540	26	1	
9	0	0	0	0	510	451	0	556	26	1	
10	0	0	0	0	507	453	0	556	26	1	
11	0	0	0	0	508	458	0	551	26	1	
12	0	0	0	0	506	471	0	543	26	1	
13	0	0	0	0	507	483	0	545	26	1	
14	0	0	0	0	503	493	0	543	26	1	
15	0	0	0	0	505	488	0	542	26	1	
0	0	0	0	0	515	482	0	562	26	1	
1	0	0	0	0	506	479	0	569	26	1	
2	0	0	0	0	507	479	0	560	26	1	
3	0	0	0	0	510	481	0	551	26	1	
4	0	0	0	0	507	473	0	540	26	1	
5	0	0	0	0	510	475	0	531	26	1	
6	0	0	0	0	505	480	0	525	26	1	
7	0	0	0	0	512	477	0	520	26	1	
8	0	0	0	0	505	473	0	517	26	1	
9	0	0	0	0	501	473	0	522	26	1	
10	0	0	0	0	514	476	0	546	26	1	
11	0	0	0	0	510	470	0	555	26	1	
12	0	0	0	0	509	464	0	550	26	1	
13	0	0	0	0	511	467	0	541	26	1	
14	0	0	0	0	511	471	0	532	26	1	
15	0	0	0	0	504	474	0	527	26	1	
0	0	0	0	0	503	477	0	540	26	1	
1	0	0	0	0	511	469	0	551	26	1	
2	0	0	0	0	509	457	0	547	26	1	
3	0	0	0	0	511	470	0	540	26	1	
4	0	0	0	0	510	481	0	531	26	1	
5	0	0	0	0	506	496	0	522	26	1	
6	0	0	0	0	508	499	0	515	26	1	
7	0	0	0	0	509	497	0	511	26	1	
8	0	0	0	0	504	498	0	512	26	1	
9	0	0	0	0	512	496	0	530	26	1	
10	0	0	0	0	514	499	0	538	26	1	
11	0	0	0	0	507	501	0	534	26	1	
12	0	0	0	0	507	501	0	536	26	1	
13	0	0	0	0	509	500	0	536	26	1	
14	0	0	0	0	512	501	0	534	26	1	
15	0	0	0	0	506	496	0	523	26	1	
0	0	0	0	0	508	490	0	515	26	1	
1	0	0	0	0	508	490	0	521	26	1	
2	0	0	0	0	510	495	0	541	26	1	
3	0	0	0	0	502	498	0	543	26	1	
4	0	0	0	0	512	501	0	536	26	1	
5	0	0	0	0	498	508	0	525	26	1	
6	0	0	0	0	512	514	0	517	26	1	
7	0	0	0	0	509	513	0	508	26	1	
8	0	0	0	0	508	510	0	504	26	1	
9	0	0	0	0	511	501	0	519	26	1	
10	0	0	0	0	506	491	0	531	26	1	
11	0	0	0	0	513	491	0	531	26	1	
12	0	0	0	0	509	500	0	524	26	1	
13	0	0	0	0	509	510	0	515	26	1	
14	0	0	0	0	504	515	0	507	26	1	
15	0	0	0	0	515	521	0	499	26	1	
0	0	0	0	0	510	523	0	505	26	1	
1	0	0	0	0	501	524	0	523	26	1	
2	0	0	0	0	510	527	0	526	26	1	
3	0	0	0	0	506	523	0	520	26	1	
4	0	0	0	0	513	502	0	511	26	1	
5	0	0	0	0	509	490	0	504	26	1	
6	0	0	0	0	510	495	0	499	26	1	
7	0	0	0	0	507	505	0	496	26	1	
8	0	0	0	0	504	515	0	495	26	1	
9	0	0	0	0	504	512	0	507	26	1	
10	0	0	0	0	505	513	0	526	26	1	
11	0	0	0	0	515	511	0	530	26	1	
12	0	0	0	0	510	505	0	526	26	1	
13	0	0	0	0	508	501	0	529	26	1	
14	0	0	0	0	503	492	0	523	26	1	
15	0	0	0	0	501	485	0	542	26	1	
0	0	0	0	0	505	503	0	545	26	1	
1	0	0	0	0	514	528	0	544	26	1	
2	0	0	0	0	510	547	0	532	26	1	
3	0	0	0	0	514	556	0	519	26	1	
4	0	0	0	0	510	552	0	508	26	1	
5	0	0	0	0	507	550	0	499	26	1	
6	0	0	0	0	511	547	0	494	26	1	
7	0	0	0	0	506	547	0	487	26	1	
8	0	0	0	0	503	542	0	484	26	1	
9	0	0	0	0	511	536	0	492	26	1	
10	0	0	0	0	509	539	0	514	26	1	
11	0	0	0	0	507	542	0	518	26	1	
12	0	0	0	0	502	531	0	512	26	1	
13	0	0	0	0	510	536	0	504	26	1	
14	0	0	0	0	511	545	0	495	26	1	
15	0	0	0	0	510	552	0	493	26	1	
0	0	0	0	0	507	560	0	509	26	1	
1	0	0	0	0	508	561	0	513	26	1	
2	0	0	0	0	508	557	0	524	26	1	
3	0	0	0	0	507	555	0	539	26	1	
4	0	0	0	0	508	552	0	534	26	1	
5	0	0	0	0	509	545	0	522	26	1	
6	0	0	0	0	512	550	0	529	26	1	
7	0	0	0	0	514	553	0	528	26	1	
8	0	0	0	0	502	549	0	515	26	1	
9	0	0	0	0	507	560	0	508	26	1	
10	0	0	0	0	508	575	0	505	26	1	
11	0	0	0	0	515	583	0	497	26	1	
12	0	0	0	0	512	582	0	488	26	1	
13	0	0	0	0	501	579	0	491	26	1	
14	0	0	0	0	510	577	0	477	26	1	
15	0	0	0	0	509	582	0	475	26	1	
0	0	0	0	0	503	587	0	472	26	1	
1	0	0	0	0	512	580	0	470	26	1	
2	0	0	0	0	504	572	0	470	26	1	
3	0	0	0	0	505	568	0	477	26	1	
4	0	0	0	0	505	574	0	502	26	1	
5	0	0	0	0	512	572	0	514	26	1	
6	0	0	0	0	509	568	0	528	26	1	
7	0	0	0	0	510	572	0	539	26	1	
8	0	0	0	0	512	575	0	528	26	1	
9	0	0	0	0	508	580	0	514	26	1	
10	0	0	0	0	509	586	0	502	26	1	
11	0	0	0	0	509	585	0	488	26	1	
12	0	0	0	0	500	580	0	480	26	1	
13	0	0	0	0	507	571	0	477	26	1	
14	0	0	0	0	502	561	0	473	26	1	
15	0	0	0	0	513	561	0	471	26	1	
0	0	0	0	0	509	563	0	469	26	1	
1	0	0	0	0	512	563	0	478	26	1	
2	0	0	0	0	505	561	0	502	26	1	
3	0	0	0	0	512	555	0	507	26	1	
4	0	0	0	0	514	550	0	504	26	1	
5	0	0	0	0	508	553	0	495	26	1	
6	0	0	0	0	508	560	0	487	26	1	
7	0	0	0	0	505	559	0	487	26	1	
8	0	0	0	0	502	551	0	501	26	1	
9	0	0	0	0	500	547	0	507	26	1	
10	0	0	0	0	498	543	0	502	26	1	
11	0	0	0	0	508	537	0	503	26	1	
12	0	0	0	0	511	538	0	500	26	1	
13	0	0	0	0	515	540	0	495	26	1	
14	0	0	0	0	508	530	0	488	26	1	
15	0	0	0	0	504	518	0	481	26	1	
0	0	0	0	0	507	512	0	476	26	1	
1	0	0	0	0	518	515	0	479	26	1	
2	0	0	0	0	511	519	0	503	26	1	
3	0	0	0	0	508	522	0	512	26	1	
4	0	0	0	0	511	516	0	525	26	1	
5	0	0	0	0	508	499	0	537	26	1	
6	0	0	0	0	507	493	0	540	26	1	
7	0	0	0	0	507	494	0	567	26	1	
8	0	0	0	0	507	502	0	545	26	1	
9	0	0	0	0	510	508	0	529	26	1	
10	0	0	0	0	508	511	0	511	26	1	
11	0	0	0	0	504	509	0	498	26	1	
12	0	0	0	0	503	509	0	488	26	1	
13	0	0	0	0	505	504	0	480	26	1	
14	0	0	0	0	506	499	0	476	26	1	
15	0	0	0	0	514	494	0	473	26	1	
0	0	0	0	0	514	493	0	480	26	1	
1	0	0	0	0	508	495	0	499	26	1	
2	0	0	0	0	509	497	0	508	26	1	
3	0	0	0	0	507	498	0	505	26	1	
4	0	0	0	0	510	487	0	499	26	1	
5	0	0	0	0	504	484	0	494	26	1	
6	0	0	0	0	509	498	0	489	26	1	
7	0	0	0	0	508	507	0	485	26	1	
8	0	0	0	0	508	506	0	496	26	1	
9	0	0	0	0	509	497	0	510	26	1	
10	0	0	0	0	509	492	0	512	26	1	
11	0	0	0	0	509	487	0	511	26	1	
12	0	0	0	0	506	484	0	514	26	1	
13	0	0	0	0	514	480	0	510	26	1	
14	0	0	0	0	505	473	0	505	26	1	
15	0	0	0	0	512	465	0	499	26	1	
0	0	0	0	0	505	463	0	495	26	1	
1	0	0	0	0	497	469	0	490	26	1	
2	0	0	0	0	506	470	0	502	26	1	
3	0	0	0	0	509	460	0	523	26	1	
4	0	0	0	0	508	456	0	526	26	1	
5	0	0	0	0	508	458	0	518	26	1	
6	0	0	0	0	512	463	0	508	26	1	
7	0	0	0	0	509	466	0	498	26	1	
8	0	0	0	0	510	463	0	492	26	1	
9	0	0	0	0	504	465	0	493	26	1	
10	0	0	0	0	504	472	0	514	26	1	
11	0	0	0	0	501	481	0	524	26	1	
12	0	0	0	0	512	484	0	519	26	1	
13	0	0	0	0	506	485	0	512	26	1	
14	0	0	0	0	510	478	0	505	26	1	
15	0	0	0	0	512	471	0	501	26	1	
0	0	0	0	0	509	463	0	516	26	1	
1	0	0	0	0	505	455	0	527	26	1	
2	0	0	0	0	511	458	0	524	26	1	
3	0	0	0	0	506	465	0	516	26	1	
4	0	0	0	0	508	473	0	524	26	1	
5	0	0	0	0	504	477	0	501	26	1	
6	0	0	0	0	508	480	0	494	26	1	
7	0	0	0	0	512	484	0	491	26	1	
8	0	0	0	0	509	484	0	494	26	1	
9	0	0	0	0	507	475	0	513	26	1	
10	0	0	0	0	512	467	0	520	26	1	
11	0	0	0	0	508	461	0	519	26	1	
12	0	0	0	0	510	462	0	527	26	1	
13	0	0	0	0	504	461	0	519	26	1	
14	0	0	0	0	507	456	0	514	26	1	
15	0	0	0	0	507	464	0	508	26	1	
0	0	0	0	0	505	475	0	503	26	1	
1	0	0	0	0	502	478	0	510	26	1	
2	0	0	0	0	508	476	0	529	26	1	
3	0	0	0	0	511	472	0	534	26	1	
4	0	0	0	0	512	470	0	529	26	1	
5	0	0	0	0	519	471	0	516	26	1	
6	0	0	0	0	506	470	0	508	26	1	
7	0	0	0	0	505	460	0	502	26	1	
8	0	0	0	0	507	458	0	499	26	1	
9	0	0	0	0	509	458	0	519	26	1	
10	0	0	0	0	504	462	0	536	26	1	
11	0	0	0	0	504	477	0	536	26	1	
12	0	0	0	0	504	488	0	531	26	1	
13	0	0	0	0	514	493	0	523	26	1	
14	0	0	0	0	512	496	0	516	26	1	
15	0	0	0	0	508	495	0	509	26	1	
0	0	0	0	0	511	495	0	514	26	1	
1	0	0	0	0	508	496	0	530	26	1	
2	0	0	0	0	507	491	0	533	26	1	
3	0	0	0	0	504	486	0	529	26	1	
4	0	0	0	0	509	485	0	522	26	1	
5	0	0	0	0	504	491	0	516	26	1	
6	0	0	0	0	504	489	0	511	26	1	
7	0	0	0	0	507	481	0	510	26	1	
8	0	0	0	0	514	479	0	509	26	1	
9	0	0	0	0	511	473	0	524	26	1	
10	0	0	0	0	511	474	0	544	26	1	
11	0	0	0	0	512	481	0	546	26	1	
12	0	0	0	0	509	483	0	543	26	1	
13	0	0	0	0	507	478	0	546	26	1	
14	0	0	0	0	504	474	0	537	26	1	
15	0	0	0	0	508	481	0	542	26	1	
0	0	0	0	0	508	483	0	557	26	1	
1	0	0	0	0	503	476	0	557	26	1	
2	0	0	0	0	510	473	0	547	26	1	
3	0	0	0	0	508	473	0	534	26	1	
4	0	0	0	0	504	475	0	524	26	1	
5	0	0	0	0	513	476	0	516	26	1	
6	0	0	0	0	504	476	0	513	26	1	
7	0	0	0	0	507	478	0	512	26	1	
8	0	0	0	0	508	479	0	502	26	1	
9	0	0	0	0	501	477	0	511	26	1	
10	0	0	0	0	512	479	0	534	26	1	
11	0	0	0	0	504	482	0	538	26	1	
12	0	0	0	0	513	495	0	531	26	1	
13	0	0	0	0	510	505	0	520	26	1	
14	0	0	0	0	502	507	0	512	26	1	
15	0	0	0	0	507	501	0	510	26	1	
0	0	0	0	0	508	500	0	526	26	1	
1	0	0	0	0	508	496	0	530	26	1	
2	0	0	0	0	507	493	0	524	26	1	
3	0	0	0	0	513	487	0	515	26	1	
4	0	0	0	0	513	487	0	507	26	1	
5	0	0	0	0	507	491	0	502	26	1	
6	0	0	0	0	509	498	0	504	26	1	
7	0	0	0	0	505	498	0	492	26	1	
8	0	0	0	0	505	501	0	500	26	1	
9	0	0	0	0	511	493	0	518	26	1	
10	0	0	0	0	504	484	0	522	26	1	
11	0	0	0	0	508	487	0	518	26	1	
12	0	0	0	0	509	489	0	524	26	1	
13	0	0	0	0	509	492	0	519	26	1	
14	0	0	0	0	509	491	0	514	26	1	
15	0	0	0	0	510	483	0	508	26	1	
0	0	0	0	0	508	477	0	502	26	1	
1	0	0	0	0	506	479	0	496	26	1	
2	0	0	0	0	507	483	0	507	26	1	
3	0	0	0	0	510	489	0	527	26	1	
4	0	0	0	0	513	495	0	532	26	1	
5	0	0	0	0	511	504	0	525	26	1	
6	0	0	0	0	508	503	0	514	26	1	
7	0	0	0	0	506	489	0	507	26	1	
8	0	0	0	0	511	486	0	499	26	1	
9	0	0	0	0	509	481	0	496	26	1	
10	0	0	0	0	511	481	0	515	26	1	
11	0	0	0	0	501	488	0	530	26	1	
12	0	0	0	0	511	490	0	527	26	1	
13	0	0	0	0	512	489	0	521	26	1	
14	0	0	0	0	508	486	0	510	26	1	
15	0	0	0	0	504	484	0	502	26	1	
0	0	0	0	0	506	482	0	509	26	1	
1	0	0	0	0	501	481	0	520	26	1	
2	0	0	0	0	510	473	0	519	26	1	
3	0	0	0	0	504	465	0	526	26	1	
4	0	0	0	0	512	469	0	504	26	1	
5	0	0	0	0	508	480	0	498	26	1	
6	0	0	0	0	504	488	0	491	26	1	
7	0	0	0	0	509	491	0	488	26	1	
8	0	0	0	0	515	491	0	489	26	1	
9	0	0	0	0	512	502	0	506	26	1	
10	0	0	0	0	511	520	0	520	26	1	
11	0	0	0	0	511	525	0	518	26	1	
12	0	0	0	0	506	520	0	509	26	1	
13	0	0	0	0	512	519	0	504	26	1	
14	0	0	0	0	514	523	0	507	26	1	
15	0	0	0	0	503	524	0	505	26	1	
0	0	0	0	0	498	511	0	511	26	1	
1	0	0	0	0	515	492	0	528	26	1	
2	0	0	0	0	507	487	0	530	26	1	
3	0	0	0	0	506	491	0	522	26	1	
4	0	0	0	0	503	492	0	511	26	1	
5	0	0	0	0	503	488	0	501	26	1	
6	0	0	0	0	503	484	0	495	26	1	
7	0	0	0	0	515	472	0	490	26	1	
8	0	0	0	0	515	465	0	486	26	1	
9	0	0	0	0	506	463	0	499	26	1	
10	0	0	0	0	508	470	0	517	26	1	
11	0	0	0	0	510	479	0	519	26	1	
12	0	0	0	0	508	480	0	512	26	1	
13	0	0	0	0	512	483	0	502	26	1	
14	0	0	0	0	511	489	0	491	26	1	
15	0	0	0	0	505	491	0	491	26	1	
0	0	0	0	0	510	480	0	476	26	1	
1	0	0	0	0	510	471	0	495	26	1	
2	0	0	0	0	508	474	0	501	26	1	
3	0	0	0	0	500	483	0	499	26	1	
4	0	0	0	0	502	492	0	492	26	1	
5	0	0	0	0	505	493	0	487	26	1	
6	0	0	0	0	514	488	0	481	26	1	
7	0	0	0	0	508	488	0	477	26	1	
8	0	0	0	0	502	494	0	489	26	1	
9	0	0	0	0	504	497	0	503	26	1	
10	0	0	0	0	512	496	0	502	26	1	
11	0	0	0	0	512	496	0	497	26	1	
12	0	0	0	0	508	488	0	496	26	1	
13	0	0	0	0	506	484	0	491	26	1	
14	0	0	0	0	511	486	0	482	26	1	
15	0	0	0	0	511	486	0	476	26	1	
0	0	0	0	0	508	481	0	472	26	1	
1	0	0	0	0	510	491	0	468	26	1	
2	0	0	0	0	510	499	0	481	26	1	
3	0	0	0	0	510	503	0	499	26	1	
4	0	0	0	0	506	502	0	501	26	1	
5	0	0	0	0	497	496	0	494	26	1	
6	0	0	0	0	505	489	0	484	26	1	
7	0	0	0	0	510	487	0	476	26	1	
8	0	0	0	0	512	490	0	471	26	1	
9	0	0	0	0	513	499	0	472	26	1	
10	0	0	0	0	512	508	0	495	26	1	
11	0	0	0	0	512	521	0	504	26	1	
12	0	0	0	0	507	534	0	500	26	1	
13	0	0	0	0	504	534	0	492	26	1	
14	0	0	0	0	507	517	0	488	26	1	
15	0	0	0	0	507	505	0	483	26	1	
0	0	0	0	0	502	503	0	499	26	1	
1	0	0	0	0	510	494	0	508	26	1	
2	0	0	0	0	511	496	0	503	26	1	
3	0	0	0	0	508	502	0	497	26	1	
4	0	0	0	0	501	504	0	489	26	1	
5	0	0	0	0	508	512	0	481	26	1	
6	0	0	0	0	511	513	0	475	26	1	
7	0	0	0	0	510	510	0	472	26	1	
8	0	0	0	0	512	506	0	476	26	1	
9	0	0	0	0	504	510	0	497	26	1	
10	0	0	0	0	505	515	0	504	26	1	
11	0	0	0	0	506	514	0	502	26	1	
12	0	0	0	0	504	510	0	503	26	1	
13	0	0	0	0	504	515	0	502	26	1	
14	0	0	0	0	504	518	0	495	26	1	
15	0	0	0	0	506	523	0	487	26	1	
0	0	0	0	0	514	529	0	478	26	1	
1	0	0	0	0	511	526	0	483	26	1	
2	0	0	0	0	506	519	0	505	26	1	
3	0	0	0	0	507	521	0	508	26	1	
4	0	0	0	0	511	527	0	501	26	1	
5	0	0	0	0	512	530	0	490	26	1	
6	0	0	0	0	509	535	0	482	26	1	
7	0	0	0	0	514	536	0	475	26	1	
8	0	0	0	0	505	524	0	472	26	1	
9	0	0	0	0	507	512	0	468	26	1	
10	0	0	0	0	512	513	0	463	26	1	
11	0	0	0	0	509	524	0	462	26	1	
12	0	0	0	0	505	533	0	462	26	1	
13	0	0	0	0	508	535	0	463	26	1	
14	0	0	0	0	507	529	0	462	26	1	
15	0	0	0	0	507	520	0	459	26	1	
0	0	0	0	0	508	509	0	459	26	1	
1	0	0	0	0	506	500	0	455	26	1	
2	0	0	0	0	505	506	0	456	26	1	
3	0	0	0	0	510	513	0	460	26	1	
4	0	0	0	0	509	516	0	461	26	1	
5	0	0	0	0	510	522	0	464	26	1	
6	0	0	0	0	505	527	0	470	26	1	
7	0	0	0	0	509	533	0	471	26	1	
8	0	0	0	0	514	539	0	468	26	1	
9	0	0	0	0	512	540	0	466	26	1	
10	0	0	0	0	511	537	0	467	26	1	
11	0	0	0	0	507	537	0	470	26	1	
12	0	0	0	0	510	543	0	473	26	1	
13	0	0	0	0	508	537	0	488	26	1	
14	0	0	0	0	505	534	0	474	26	1	
15	0	0	0	0	512	525	0	472	26	1	
0	0	0	0	0	504	519	0	477	26	1	
1	0	0	0	0	505	527	0	501	26	1	
2	0	0	0	0	510	527	0	514	26	1	
3	0	0	0	0	509	524	0	515	26	1	
4	0	0	0	0	510	528	0	511	26	1	
5	0	0	0	0	515	527	0	504	26	1	
6	0	0	0	0	504	516	0	500	26	1	
7	0	0	0	0	505	509	0	519	26	1	
8	0	0	0	0	501	509	0	528	26	1	
9	0	0	0	0	508	502	0	535	26	1	
10	0	0	0	0	510	494	0	555	26	1	
11	0	0	0	0	515	497	0	556	26	1	
12	0	0	0	0	506	509	0	569	26	1	
13	0	0	0	0	510	514	0	568	26	1	
14	0	0	0	0	504	514	0	568	26	1	
15	0	0	0	0	504	515	0	577	26	1	
0	0	0	0	0	509	515	0	570	26	1	
1	0	0	0	0	508	513	0	576	26	1	
2	0	0	0	0	508	514	0	575	26	1	
3	0	0	0	0	509	509	0	558	26	1	
4	0	0	0	0	505	515	0	539	26	1	
5	0	0	0	0	510	519	0	521	26	1	
6	0	0	0	0	505	519	0	508	26	1	
7	0	0	0	0	508	521	0	494	26	1	
8	0	0	0	0	522	524	0	484	26	1	
9	0	0	0	0	507	527	0	484	26	1	
10	0	0	0	0	502	528	0	473	26	1	
11	0	0	0	0	512	523	0	475	26	1	
12	0	0	0	0	501	519	0	475	26	1	
13	0	0	0	0	503	518	0	478	26	1	
14	0	0	0	0	504	512	0	480	26	1	
15	0	0	0	0	507	510	0	480	26	1	
0	0	0	0	0	512	511	0	479	26	1	
1	0	0	0	0	508	509	0	481	26	1	
2	0	0	0	0	502	499	0	476	26	1	
3	0	0	0	0	504	499	0	480	26	1	
4	0	0	0	0	507	500	0	482	26	1	
5	0	0	0	0	512	497	0	484	26	1	
6	0	0	0	0	516	503	0	484	26	1	
7	0	0	0	0	509	509	0	485	26	1	
8	0	0	0	0	503	515	0	482	26	1	
9	0	0	0	0	505	519	0	484	26	1	
10	0	0	0	0	508	525	0	506	26	1	
11	0	0	0	0	505	529	0	524	26	1	
12	0	0	0	0	508	531	0	526	26	1	
13	0	0	0	0	510	530	0	520	26	1	
14	0	0	0	0	510	525	0	514	26	1	
15	0	0	0	0	508	520	0	502	26	1	
0	0	0	0	0	509	524	0	492	26	1	
1	0	0	0	0	507	526	0	484	26	1	
2	0	0	0	0	505	521	0	489	26	1	
3	0	0	0	0	506	515	0	519	26	1	
4	0	0	0	0	510	511	0	533	26	1	
5	0	0	0	0	508	515	0	550	26	1	
6	0	0	0	0	512	524	0	561	26	1	
7	0	0	0	0	508	535	0	561	26	1	
8	0	0	0	0	510	546	0	573	26	1	
9	0	0	0	0	504	559	0	568	26	1	
10	0	0	0	0	511	571	0	571	26	1	
11	0	0	0	0	514	594	0	576	26	1	
12	0	0	0	0	505	613	0	566	26	1	
13	0	0	0	0	508	623	0	553	26	1	
14	0	0	0	0	504	629	0	547	26	1	
15	0	0	0	0	512	641	0	536	26	1	
0	0	0	0	0	508	656	0	537	26	1	
1	0	0	0	0	509	672	0	551	26	1	
2	0	0	0	0	506	688	0	550	26	1	
3	0	0	0	0	508	705	0	542	26	1	
4	0	0	0	0	501	723	0	529	26	1	
5	0	0	0	0	509	735	0	519	26	1	
6	0	0	0	0	516	752	0	512	26	1	
7	0	0	0	0	513	769	0	509	26	1	
8	0	0	0	0	511	782	0	505	26	1	
9	0	0	0	0	511	787	0	519	26	1	
10	0	0	0	0	511	790	0	540	26	1	
11	0	0	0	0	507	784	0	542	26	1	
12	0	0	0	0	500	778	0	537	26	1	
13	0	0	0	0	508	780	0	529	26	1	
14	0	0	0	0	509	781	0	520	26	1	
15	0	0	0	0	507	773	0	527	26	1	
0	0	0	0	0	511	761	0	551	26	1	
1	0	0	0	0	509	748	0	539	26	1	
2	0	0	0	0	509	729	0	532	26	1	
3	0	0	0	0	504	710	0	523	26	1	
4	0	0	0	0	511	699	0	515	26	1	
5	0	0	0	0	508	671	0	510	26	1	
6	0	0	0	0	498	643	0	507	26	1	
7	0	0	0	0	509	622	0	507	26	1	
8	0	0	0	0	510	599	0	504	26	1	
9	0	0	0	0	512	569	0	513	26	1	
10	0	0	0	0	509	540	0	537	26	1	
11	0	0	0	0	503	508	0	542	26	1	
12	0	0	0	0	507	483	0	537	26	1	
13	0	0	0	0	505	448	0	540	26	1	
14	0	0	0	0	508	429	0	532	26	1	
15	0	0	0	0	514	428	0	529	26	1	
0	0	0	0	0	509	420	0	547	26	1	
1	0	0	0	0	507	418	0	552	26	1	
2	0	0	0	0	508	419	0	542	26	1	
3	0	0	0	0	509	409	0	529	26	1	
4	0	0	0	0	511	401	0	519	26	1	
5	0	0	0	0	506	394	0	511	26	1	
6	0	0	0	0	508	384	0	503	26	1	
7	0	0	0	0	509	372	0	498	26	1	
8	0	0	0	0	507	362	0	505	26	1	
9	0	0	0	0	501	360	0	523	26	1	
10	0	0	0	0	503	361	0	526	26	1	
11	0	0	0	0	508	363	0	521	26	1	
12	0	0	0	0	512	361	0	512	26	1	
13	0	0	0	0	506	355	0	503	26	1	
14	0	0	0	0	505	358	0	499	26	1	
15	0	0	0	0	510	359	0	494	26	1	
0	0	0	0	0	515	355	0	491	26	1	
1	0	0	0	0	510	361	0	505	26	1	
2	0	0	0	0	506	361	0	525	26	1	
3	0	0	0	0	507	364	0	526	26	1	
4	0	0	0	0	515	375	0	520	26	1	
5	0	0	0	0	506	385	0	511	26	1	
6	0	0	0	0	506	390	0	500	26	1	
7	0	0	0	0	505	390	0	503	26	1	
8	0	0	0	0	512	386	0	516	26	1	
9	0	0	0	0	508	379	0	515	26	1	
10	0	0	0	0	508	376	0	507	26	1	
11	0	0	0	0	510	381	0	499	26	1	
12	0	0	0	0	503	393	0	500	26	1	
13	0	0	0	0	509	408	0	502	26	1	
14	0	0	0	0	509	416	0	498	26	1	
15	0	0	0	0	517	417	0	494	26	1	
0	0	0	0	0	508	414	0	506	26	1	
1	0	0	0	0	511	410	0	523	26	1	
2	0	0	0	0	505	409	0	523	26	1	
3	0	0	0	0	511	415	0	515	26	1	
4	0	0	0	0	512	414	0	505	26	1	
5	0	0	0	0	505	417	0	495	26	1	
6	0	0	0	0	504	425	0	486	26	1	
7	0	0	0	0	512	432	0	481	26	1	
8	0	0	0	0	511	433	0	478	26	1	
9	0	0	0	0	509	428	0	494	26	1	
10	0	0	0	0	501	428	0	506	26	1	
11	0	0	0	0	509	433	0	507	26	1	
12	0	0	0	0	506	433	0	499	26	1	
13	0	0	0	0	503	432	0	487	26	1	
14	0	0	0	0	510	433	0	480	26	1	
15	0	0	0	0	513	439	0	474	26	1	
0	0	0	0	0	501	453	0	481	26	1	
1	0	0	0	0	510	464	0	496	26	1	
2	0	0	0	0	499	461	0	499	26	1	
3	0	0	0	0	511	454	0	494	26	1	
4	0	0	0	0	512	452	0	488	26	1	
5	0	0	0	0	510	454	0	495	26	1	
6	0	0	0	0	507	455	0	479	26	1	
7	0	0	0	0	510	455	0	476	26	1	
8	0	0	0	0	515	453	0	473	26	1	
9	0	0	0	0	510	456	0	487	26	1	
10	0	0	0	0	508	453	0	505	26	1	
11	0	0	0	0	507	452	0	510	26	1	
12	0	0	0	0	509	459	0	510	26	1	
13	0	0	0	0	504	462	0	509	26	1	
14	0	0	0	0	511	460	0	503	26	1	
15	0	0	0	0	502	459	0	507	26	1	
0	0	0	0	0	508	454	0	526	26	1	
1	0	0	0	0	502	449	0	526	26	1	
2	0	0	0	0	511	453	0	515	26	1	
3	0	0	0	0	504	455	0	502	26	1	
4	0	0	0	0	514	461	0	492	26	1	
5	0	0	0	0	508	469	0	497	26	1	
6	0	0	0	0	508	476	0	479	26	1	
7	0	0	0	0	507	478	0	475	26	1	
8	0	0	0	0	505	482	0	471	26	1	
9	0	0	0	0	511	476	0	481	26	1	
10	0	0	0	0	510	464	0	502	26	1	
11	0	0	0	0	507	458	0	510	26	1	
12	0	0	0	0	512	457	0	519	26	1	
13	0	0	0	0	515	453	0	493	26	1	
14	0	0	0	0	513	448	0	486	26	1	
15	0	0	0	0	509	453	0	485	26	1	
0	0	0	0	0	504	461	0	500	26	1	
1	0	0	0	0	515	470	0	505	26	1	
2	0	0	0	0	504	476	0	519	26	1	
3	0	0	0	0	501	475	0	534	26	1	
4	0	0	0	0	509	472	0	530	26	1	
5	0	0	0	0	508	472	0	519	26	1	
6	0	0	0	0	508	463	0	527	26	1	
7	0	0	0	0	507	448	0	527	26	1	
8	0	0	0	0	514	448	0	516	26	1	
9	0	0	0	0	502	457	0	508	26	1	
10	0	0	0	0	508	463	0	506	26	1	
11	0	0	0	0	503	466	0	497	26	1	
12	0	0	0	0	505	473	0	489	26	1	
13	0	0	0	0	514	480	0	483	26	1	
14	0	0	0	0	504	485	0	479	26	1	
15	0	0	0	0	503	486	0	479	26	1	
0	0	0	0	0	511	493	0	476	26	1	
1	0	0	0	0	507	492	0	474	26	1	
2	0	0	0	0	509	487	0	472	26	1	
3	0	0	0	0	510	480	0	472	26	1	
4	0	0	0	0	504	474	0	475	26	1	
5	0	0	0	0	508	482	0	496	26	1	
6	0	0	0	0	509	482	0	513	26	1	
7	0	0	0	0	511	485	0	540	26	1	
8	0	0	0	0	508	491	0	540	26	1	
9	0	0	0	0	514	499	0	536	26	1	
10	0	0	0	0	508	501	0	524	26	1	
11	0	0	0	0	510	493	0	509	26	1	
12	0	0	0	0	509	487	0	496	26	1	
13	0	0	0	0	509	490	0	489	26	1	
14	0	0	0	0	509	497	0	485	26	1	
15	0	0	0	0	510	503	0	483	26	1	
0	0	0	0	0	509	505	0	480	26	1	
1	0	0	0	0	505	499	0	490	26	1	
2	0	0	0	0	507	483	0	513	26	1	
3	0	0	0	0	515	481	0	520	26	1	
4	0	0	0	0	503	485	0	515	26	1	
5	0	0	0	0	512	491	0	506	26	1	
6	0	0	0	0	505	506	0	499	26	1	
7	0	0	0	0	505	514	0	501	26	1	
8	0	0	0	0	508	512	0	516	26	1	
9	0	0	0	0	508	518	0	522	26	1	
10	0	0	0	0	510	526	0	517	26	1	
11	0	0	0	0	503	525	0	517	26	1	
12	0	0	0	0	505	519	0	515	26	1	
13	0	0	0	0	508	515	0	508	26	1	
14	0	0	0	0	511	511	0	501	26	1	
15	0	0	0	0	508	512	0	495	26	1	
0	0	0	0	0	504	513	0	489	26	1	
1	0	0	0	0	509	516	0	492	26	1	
2	0	0	0	0	506	520	0	517	26	1	
3	0	0	0	0	509	521	0	526	26	1	
4	0	0	0	0	514	524	0	521	26	1	
5	0	0	0	0	510	527	0	512	26	1	
6	0	0	0	0	510	533	0	503	26	1	
7	0	0	0	0	503	531	0	495	26	1	
8	0	0	0	0	503	531	0	491	26	1	
9	0	0	0	0	516	535	0	503	26	1	
10	0	0	0	0	508	530	0	525	26	1	
11	0	0	0	0	505	533	0	529	26	1	
12	0	0	0	0	509	547	0	524	26	1	
13	0	0	0	0	510	560	0	515	26	1	
14	0	0	0	0	511	566	0	508	26	1	
15	0	0	0	0	515	566	0	511	26	1	
0	0	0	0	0	502	551	0	524	26	1	
1	0	0	0	0	507	541	0	521	26	1	
2	0	0	0	0	512	542	0	514	26	1	
3	0	0	0	0	500	541	0	506	26	1	
4	0	0	0	0	507	544	0	502	26	1	
5	0	0	0	0	508	551	0	500	26	1	
6	0	0	0	0	502	560	0	497	26	1	
7	0	0	0	0	510	566	0	496	26	1	
8	0	0	0	0	512	568	0	495	26	1	
9	0	0	0	0	507	562	0	507	26	1	
10	0	0	0	0	508	561	0	530	26	1	
11	0	0	0	0	510	563	0	537	26	1	
12	0	0	0	0	511	564	0	533	26	1	
13	0	0	0	0	506	576	0	535	26	1	
14	0	0	0	0	506	587	0	528	26	1	
15	0	0	0	0	513	589	0	526	26	1	
0	0	0	0	0	507	592	0	544	26	1	
1	0	0	0	0	508	591	0	549	26	1	
2	0	0	0	0	509	591	0	540	26	1	
3	0	0	0	0	507	587	0	529	26	1	
4	0	0	0	0	503	589	0	522	26	1	
5	0	0	0	0	505	595	0	513	26	1	
6	0	0	0	0	503	596	0	507	26	1	
7	0	0	0	0	507	592	0	502	26	1	
8	0	0	0	0	512	585	0	499	26	1	
9	0	0	0	0	510	574	0	501	26	1	
10	0	0	0	0	505	572	0	527	26	1	
11	0	0	0	0	510	575	0	539	26	1	
12	0	0	0	0	507	574	0	535	26	1	
13	0	0	0	0	501	570	0	526	26	1	
14	0	0	0	0	511	567	0	519	26	1	
15	0	0	0	0	507	569	0	514	26	1	
0	0	0	0	0	506	567	0	528	26	1	
1	0	0	0	0	507	559	0	541	26	1	
2	0	0	0	0	511	557	0	539	26	1	
3	0	0	0	0	510	560	0	532	26	1	
4	0	0	0	0	510	563	0	524	26	1	
5	0	0	0	0	509	568	0	518	26	1	
6	0	0	0	0	512	567	0	511	26	1	
7	0	0	0	0	507	560	0	509	26	1	
8	0	0	0	0	506	555	0	513	26	1	
9	0	0	0	0	508	560	0	534	26	1	
10	0	0	0	0	512	568	0	540	26	1	
11	0	0	0	0	510	562	0	538	26	1	
12	0	0	0	0	507	551	0	538	26	1	
13	0	0	0	0	511	542	0	537	26	1	
14	0	0	0	0	504	536	0	531	26	1	
15	0	0	0	0	507	531	0	523	26	1	
0	0	0	0	0	510	530	0	516	26	1	
1	0	0	0	0	502	529	0	523	26	1	
2	0	0	0	0	507	526	0	543	26	1	
3	0	0	0	0	504	524	0	544	26	1	
4	0	0	0	0	509	529	0	537	26	1	
5	0	0	0	0	504	527	0	526	26	1	
6	0	0	0	0	511	525	0	517	26	1	
7	0	0	0	0	514	527	0	510	26	1	
8	0	0	0	0	504	531	0	508	26	1	
9	0	0	0	0	510	526	0	528	26	1	
10	0	0	0	0	511	522	0	554	26	1	
11	0	0	0	0	505	523	0	542	26	1	
12	0	0	0	0	503	524	0	534	26	1	
13	0	0	0	0	513	524	0	525	26	1	
14	0	0	0	0	515	521	0	516	26	1	
15	0	0	0	0	507	518	0	509	26	1	
0	0	0	0	0	503	512	0	513	26	1	
1	0	0	0	0	512	495	0	531	26	1	
2	0	0	0	0	511	482	0	536	26	1	
3	0	0	0	0	504	480	0	546	26	1	
4	0	0	0	0	507	486	0	520	26	1	
5	0	0	0	0	506	483	0	514	26	1	
6	0	0	0	0	505	480	0	509	26	1	
7	0	0	0	0	503	477	0	505	26	1	
8	0	0	0	0	508	479	0	501	26	1	
9	0	0	0	0	509	481	0	515	26	1	
10	0	0	0	0	507	484	0	533	26	1	
11	0	0	0	0	508	481	0	534	26	1	
12	0	0	0	0	510	481	0	529	26	1	
13	0	0	0	0	510	479	0	530	26	1	
14	0	0	0	0	506	475	0	521	26	1	
15	0	0	0	0	501	463	0	512	26	1	
0	0	0	0	0	510	451	0	509	26	1	
1	0	0	0	0	510	454	0	529	26	1	
2	0	0	0	0	510	447	0	533	26	1	
3	0	0	0	0	508	438	0	526	26	1	
4	0	0	0	0	513	439	0	514	26	1	
5	0	0	0	0	508	450	0	504	26	1	
6	0	0	0	0	515	462	0	495	26	1	
7	0	0	0	0	504	468	0	487	26	1	
8	0	0	0	0	511	471	0	500	26	1	
9	0	0	0	0	508	467	0	518	26	1	
10	0	0	0	0	515	472	0	512	26	1	
11	0	0	0	0	508	477	0	507	26	1	
12	0	0	0	0	508	481	0	499	26	1	
13	0	0	0	0	510	479	0	490	26	1	
14	0	0	0	0	504	472	0	482	26	1	
15	0	0	0	0	513	466	0	480	26	1	
0	0	0	0	0	504	454	0	479	26	1	
1	0	0	0	0	511	451	0	497	26	1	
2	0	0	0	0	508	447	0	514	26	1	
3	0	0	0	0	500	450	0	513	26	1	
4	0	0	0	0	505	459	0	506	26	1	
5	0	0	0	0	509	472	0	498	26	1	
6	0	0	0	0	506	482	0	490	26	1	
7	0	0	0	0	512	487	0	484	26	1	
8	0	0	0	0	513	481	0	490	26	1	
9	0	0	0	0	507	473	0	505	26	1	
10	0	0	0	0	511	470	0	506	26	1	
11	0	0	0	0	502	468	0	504	26	1	
12	0	0	0	0	511	460	0	506	26	1	
13	0	0	0	0	515	459	0	504	26	1	
14	0	0	0	0	511	463	0	499	26	1	
15	0	0	0	0	511	463	0	492	26	1	
0	0	0	0	0	497	469	0	487	26	1	
1	0	0	0	0	503	469	0	483	26	1	
2	0	0	0	0	508	459	0	490	26	1	
3	0	0	0	0	510	451	0	512	26	1	
4	0	0	0	0	505	447	0	517	26	1	
5	0	0	0	0	505	462	0	512	26	1	
6	0	0	0	0	510	467	0	503	26	1	
7	0	0	0	0	510	460	0	492	26	1	
8	0	0	0	0	508	459	0	491	26	1	
9	0	0	0	0	501	462	0	509	26	1	
10	0	0	0	0	510	464	0	514	26	1	
11	0	0	0	0	508	460	0	510	26	1	
12	0	0	0	0	503	456	0	500	26	1	
13	0	0	0	0	515	461	0	491	26	1	
14	0	0	0	0	510	469	0	484	26	1	
15	0	0	0	0	511	479	0	479	26	1	
0	0	0	0	0	501	476	0	489	26	1	
1	0	0	0	0	510	465	0	501	26	1	
2	0	0	0	0	515	463	0	502	26	1	
3	0	0	0	0	504	456	0	512	26	1	
4	0	0	0	0	500	452	0	489	26	1	
5	0	0	0	0	504	459	0	481	26	1	
6	0	0	0	0	514	461	0	476	26	1	
7	0	0	0	0	511	460	0	473	26	1	
8	0	0	0	0	507	462	0	472	26	1	
9	0	0	0	0	506	469	0	492	26	1	
10	0	0	0	0	511	467	0	505	26	1	
11	0	0	0	0	509	467	0	505	26	1	
12	0	0	0	0	509	462	0	505	26	1	
13	0	0	0	0	511	467	0	507	26	1	
14	0	0	0	0	503	482	0	500	26	1	
15	0	0	0	0	500	490	0	508	26	1	
0	0	0	0	0	509	496	0	521	26	1	
1	0	0	0	0	511	489	0	534	26	1	
2	0	0	0	0	510	475	0	510	26	1	
3	0	0	0	0	506	465	0	500	26	1	
4	0	0	0	0	511	467	0	491	26	1	
5	0	0	0	0	508	469	0	484	26	1	
6	0	0	0	0	508	467	0	480	26	1	
7	0	0	0	0	512	464	0	478	26	1	
8	0	0	0	0	510	459	0	476	26	1	
9	0	0	0	0	505	451	0	492	26	1	
10	0	0	0	0	508	451	0	514	26	1	
11	0	0	0	0	502	467	0	519	26	1	
12	0	0	0	0	508	478	0	513	26	1	
13	0	0	0	0	510	483	0	503	26	1	
14	0	0	0	0	507	485	0	494	26	1	
15	0	0	0	0	509	481	0	496	26	1	
0	0	0	0	0	511	480	0	511	26	1	
1	0	0	0	0	504	479	0	509	26	1	
2	0	0	0	0	512	477	0	503	26	1	
3	0	0	0	0	510	464	0	496	26	1	
4	0	0	0	0	510	454	0	490	26	1	
5	0	0	0	0	505	453	0	487	26	1	
6	0	0	0	0	504	460	0	488	26	1	
7	0	0	0	0	507	467	0	484	26	1	
8	0	0	0	0	512	471	0	484	26	1	
9	0	0	0	0	514	469	0	495	26	1	
10	0	0	0	0	510	465	0	520	26	1	
11	0	0	0	0	504	461	0	529	26	1	
12	0	0	0	0	504	455	0	526	26	1	
13	0	0	0	0	503	455	0	526	26	1	
14	0	0	0	0	502	462	0	523	26	1	
15	0	0	0	0	503	464	0	521	26	1	
0	0	0	0	0	509	467	0	540	26	1	
1	0	0	0	0	510	478	0	545	26	1	
2	0	0	0	0	505	483	0	536	26	1	
3	0	0	0	0	511	479	0	525	26	1	
4	0	0	0	0	508	478	0	514	26	1	
5	0	0	0	0	511	483	0	505	26	1	
6	0	0	0	0	508	480	0	499	26	1	
7	0	0	0	0	510	476	0	494	26	1	
8	0	0	0	0	505	464	0	503	26	1	
9	0	0	0	0	505	451	0	521	26	1	
10	0	0	0	0	512	455	0	527	26	1	
11	0	0	0	0	510	467	0	547	26	1	
12	0	0	0	0	507	472	0	555	26	1	
13	0	0	0	0	510	476	0	547	26	1	
14	0	0	0	0	514	484	0	539	26	1	
15	0	0	0	0	505	484	0	549	26	1	
0	0	0	0	0	506	477	0	543	26	1	
1	0	0	0	0	508	482	0	530	26	1	
2	0	0	0	0	507	474	0	519	26	1	
3	0	0	0	0	514	460	0	515	26	1	
4	0	0	0	0	510	452	0	517	26	1	
5	0	0	0	0	511	456	0	513	26	1	
6	0	0	0	0	507	463	0	508	26	1	
7	0	0	0	0	510	467	0	504	26	1	
8	0	0	0	0	512	476	0	499	26	1	
9	0	0	0	0	509	480	0	496	26	1	
10	0	0	0	0	508	477	0	494	26	1	
11	0	0	0	0	510	475	0	512	26	1	
12	0	0	0	0	508	474	0	534	26	1	
13	0	0	0	0	507	473	0	543	26	1	
14	0	0	0	0	512	470	0	562	26	1	
15	0	0	0	0	505	471	0	560	26	1	
0	0	0	0	0	504	469	0	555	26	1	
1	0	0	0	0	511	467	0	552	26	1	
2	0	0	0	0	502	464	0	546	26	1	
3	0	0	0	0	506	465	0	534	26	1	
4	0	0	0	0	508	467	0	520	26	1	
5	0	0	0	0	510	467	0	508	26	1	
6	0	0	0	0	503	467	0	503	26	1	
7	0	0	0	0	508	459	0	497	26	1	
8	0	0	0	0	511	451	0	494	26	1	
9	0	0	0	0	501	459	0	492	26	1	
10	0	0	0	0	508	462	0	489	26	1	
11	0	0	0	0	510	460	0	502	26	1	
12	0	0	0	0	504	462	0	524	26	1	
13	0	0	0	0	511	467	0	532	26	1	
14	0	0	0	0	508	467	0	548	26	1	
15	0	0	0	0	510	468	0	551	26	1	
0	0	0	0	0	507	460	0	550	26	1	
1	0	0	0	0	503	448	0	556	26	1	
2	0	0	0	0	504	448	0	549	26	1	
3	0	0	0	0	512	451	0	558	26	1	
4	0	0	0	0	498	459	0	560	26	1	
5	0	0	0	0	517	461	0	551	26	1	
6	0	0	0	0	510	468	0	539	26	1	
7	0	0	0	0	514	478	0	548	26	1	
8	0	0	0	0	510	475	0	543	26	1	
9	0	0	0	0	511	473	0	529	26	1	
10	0	0	0	0	506	478	0	516	26	1	
11	0	0	0	0	510	479	0	513	26	1	
12	0	0	0	0	504	477	0	516	26	1	
13	0	0	0	0	510	470	0	522	26	1	
14	0	0	0	0	509	462	0	509	26	1	
15	0	0	0	0	513	479	0	507	26	1	
0	0	0	0	0	507	485	0	505	26	1	
1	0	0	0	0	508	483	0	506	26	1	
2	0	0	0	0	507	484	0	527	26	1	
3	0	0	0	0	509	484	0	542	26	1	
4	0	0	0	0	509	471	0	555	26	1	
5	0	0	0	0	510	468	0	571	26	1	
6	0	0	0	0	503	473	0	570	26	1	
7	0	0	0	0	503	479	0	575	26	1	
8	0	0	0	0	504	482	0	571	26	1	
9	0	0	0	0	508	482	0	565	26	1	
10	0	0	0	0	502	481	0	572	26	1	
11	0	0	0	0	506	484	0	563	26	1	
12	0	0	0	0	513	486	0	549	26	1	
13	0	0	0	0	511	486	0	534	26	1	
14	0	0	0	0	501	486	0	520	26	1	
15	0	0	0	0	513	481	0	516	26	1	
0	0	0	0	0	508	478	0	530	26	1	
1	0	0	0	0	508	483	0	534	26	1	
2	0	0	0	0	507	487	0	527	26	1	
3	0	0	0	0	513	483	0	517	26	1	
4	0	0	0	0	510	478	0	509	26	1	
5	0	0	0	0	511	471	0	504	26	1	
6	0	0	0	0	508	470	0	497	26	1	
7	0	0	0	0	504	473	0	494	26	1	
8	0	0	0	0	509	481	0	504	26	1	
9	0	0	0	0	504	487	0	523	26	1	
10	0	0	0	0	504	486	0	526	26	1	
11	0	0	0	0	508	489	0	521	26	1	
12	0	0	0	0	515	492	0	523	26	1	
13	0	0	0	0	510	499	0	519	26	1	
14	0	0	0	0	508	499	0	513	26	1	
15	0	0	0	0	504	491	0	507	26	1	
0	0	0	0	0	508	488	0	499	26	1	
1	0	0	0	0	509	491	0	495	26	1	
2	0	0	0	0	510	509	0	505	26	1	
3	0	0	0	0	506	518	0	528	26	1	
4	0	0	0	0	510	513	0	532	26	1	
5	0	0	0	0	510	513	0	527	26	1	
6	0	0	0	0	507	523	0	519	26	1	
7	0	0	0	0	508	527	0	511	26	1	
8	0	0	0	0	513	523	0	508	26	1	
9	0	0	0	0	504	508	0	527	26	1	
10	0	0	0	0	507	495	0	534	26	1	
11	0	0	0	0	511	487	0	528	26	1	
12	0	0	0	0	510	488	0	519	26	1	
13	0	0	0	0	508	486	0	510	26	1	
14	0	0	0	0	504	485	0	505	26	1	
15	0	0	0	0	498	481	0	497	26	1	
0	0	0	0	0	508	479	0	508	26	1	
1	0	0	0	0	510	486	0	521	26	1	
2	0	0	0	0	510	493	0	521	26	1	
3	0	0	0	0	506	500	0	514	26	1	
4	0	0	0	0	509	505	0	506	26	1	
5	0	0	0	0	515	508	0	499	26	1	
6	0	0	0	0	514	506	0	492	26	1	
7	0	0	0	0	508	498	0	488	26	1	
8	0	0	0	0	508	488	0	489	26	1	
9	0	0	0	0	505	483	0	507	26	1	
10	0	0	0	0	515	485	0	523	26	1	
11	0	0	0	0	500	489	0	522	26	1	
12	0	0	0	0	510	491	0	521	26	1	
13	0	0	0	0	507	496	0	522	26	1	
14	0	0	0	0	508	496	0	514	26	1	
15	0	0	0	0	508	491	0	521	26	1	
0	0	0	0	0	506	491	0	531	26	1	
1	0	0	0	0	505	497	0	525	26	1	
2	0	0	0	0	502	497	0	512	26	1	
3	0	0	0	0	512	492	0	499	26	1	
4	0	0	0	0	506	481	0	488	26	1	
5	0	0	0	0	508	476	0	482	26	1	
6	0	0	0	0	500	480	0	478	26	1	
7	0	0	0	0	505	487	0	477	26	1	
8	0	0	0	0	511	486	0	496	26	1	
9	0	0	0	0	511	483	0	509	26	1	
10	0	0	0	0	514	478	0	508	26	1	
11	0	0	0	0	515	472	0	503	26	1	
12	0	0	0	0	510	469	0	496	26	1	
13	0	0	0	0	512	470	0	492	26	1	
14	0	0	0	0	509	473	0	485	26	1	
15	0	0	0	0	508	478	0	481	26	1	
0	0	0	0	0	504	484	0	485	26	1	
1	0	0	0	0	508	488	0	507	26	1	
2	0	0	0	0	510	480	0	515	26	1	
3	0	0	0	0	508	481	0	511	26	1	
4	0	0	0	0	504	482	0	505	26	1	
5	0	0	0	0	503	480	0	497	26	1	
6	0	0	0	0	511	481	0	491	26	1	
7	0	0	0	0	510	485	0	485	26	1	
8	0	0	0	0	505	487	0	496	26	1	
9	0	0	0	0	510	489	0	505	26	1	
10	0	0	0	0	509	480	0	504	26	1	
11	0	0	0	0	506	465	0	498	26	1	
12	0	0	0	0	510	462	0	494	26	1	
13	0	0	0	0	509	466	0	496	26	1	
14	0	0	0	0	504	465	0	495	26	1	
15	0	0	0	0	505	472	0	491	26	1	
0	0	0	0	0	508	477	0	488	26	1	
1	0	0	0	0	504	478	0	504	26	1	
2	0	0	0	0	506	473	0	516	26	1	
3	0	0	0	0	508	472	0	513	26	1	
4	0	0	0	0	508	476	0	506	26	1	
5	0	0	0	0	507	482	0	499	26	1	
6	0	0	0	0	511	492	0	487	26	1	
7	0	0	0	0	503	504	0	480	26	1	
8	0	0	0	0	509	500	0	475	26	1	
9	0	0	0	0	511	486	0	480	26	1	
10	0	0	0	0	504	480	0	502	26	1	
11	0	0	0	0	511	480	0	513	26	1	
12	0	0	0	0	509	477	0	509	26	1	
13	0	0	0	0	511	474	0	500	26	1	
14	0	0	0	0	504	472	0	491	26	1	
15	0	0	0	0	511	478	0	486	26	1	
0	0	0	0	0	508	480	0	499	26	1	
1	0	0	0	0	509	478	0	508	26	1	
2	0	0	0	0	511	481	0	504	26	1	
3	0	0	0	0	512	490	0	496	26	1	
4	0	0	0	0	513	493	0	488	26	1	
5	0	0	0	0	501	486	0	481	26	1	
6	0	0	0	0	499	486	0	491	26	1	
7	0	0	0	0	513	483	0	472	26	1	
8	0	0	0	0	508	488	0	476	26	1	
9	0	0	0	0	509	499	0	497	26	1	
10	0	0	0	0	510	512	0	504	26	1	
11	0	0	0	0	506	505	0	500	26	1	
12	0	0	0	0	508	495	0	501	26	1	
13	0	0	0	0	508	486	0	501	26	1	
14	0	0	0	0	499	483	0	496	26	1	
15	0	0	0	0	512	478	0	496	26	1	
0	0	0	0	0	513	469	0	480	26	1	
1	0	0	0	0	512	463	0	487	26	1	
2	0	0	0	0	504	478	0	507	26	1	
3	0	0	0	0	510	497	0	511	26	1	
4	0	0	0	0	510	507	0	505	26	1	
5	0	0	0	0	516	514	0	499	26	1	
6	0	0	0	0	509	527	0	491	26	1	
7	0	0	0	0	508	545	0	487	26	1	
8	0	0	0	0	504	572	0	484	26	1	
9	0	0	0	0	505	591	0	502	26	1	
10	0	0	0	0	510	602	0	517	26	1	
11	0	0	0	0	508	622	0	518	26	1	
12	0	0	0	0	503	641	0	510	26	1	
13	0	0	0	0	513	662	0	500	26	1	
14	0	0	0	0	505	682	0	492	26	1	
15	0	0	0	0	503	693	0	484	26	1	
0	0	0	0	0	505	700	0	488	26	1	
1	0	0	0	0	508	707	0	504	26	1	
2	0	0	0	0	505	719	0	510	26	1	
3	0	0	0	0	502	726	0	527	26	1	
4	0	0	0	0	509	726	0	536	26	1	
5	0	0	0	0	512	729	0	529	26	1	
6	0	0	0	0	511	732	0	522	26	1	
7	0	0	0	0	510	725	0	532	26	1	
8	0	0	0	0	509	714	0	530	26	1	
9	0	0	0	0	506	718	0	528	26	1	
10	0	0	0	0	505	725	0	504	26	1	
11	0	0	0	0	509	728	0	499	26	1	
12	0	0	0	0	501	719	0	501	26	1	
13	0	0	0	0	512	703	0	497	26	1	
14	0	0	0	0	504	683	0	492	26	1	
15	0	0	0	0	506	670	0	488	26	1	
0	0	0	0	0	513	664	0	486	26	1	
1	0	0	0	0	508	651	0	485	26	1	
2	0	0	0	0	503	640	0	505	26	1	
3	0	0	0	0	510	632	0	521	26	1	
4	0	0	0	0	508	610	0	521	26	1	
5	0	0	0	0	504	598	0	514	26	1	
6	0	0	0	0	514	588	0	505	26	1	
7	0	0	0	0	511	578	0	497	26	1	
8	0	0	0	0	508	550	0	489	26	1	
9	0	0	0	0	506	511	0	483	26	1	
10	0	0	0	0	506	479	0	487	26	1	
11	0	0	0	0	507	451	0	512	26	1	
12	0	0	0	0	514	439	0	520	26	1	
13	0	0	0	0	508	436	0	519	26	1	
14	0	0	0	0	505	429	0	524	26	1	
15	0	0	0	0	508	420	0	539	26	1	
0	0	0	0	0	503	413	0	534	26	1	
1	0	0	0	0	511	407	0	523	26	1	
2	0	0	0	0	508	397	0	511	26	1	
3	0	0	0	0	513	378	0	501	26	1	
4	0	0	0	0	506	374	0	494	26	1	
5	0	0	0	0	509	383	0	494	26	1	
6	0	0	0	0	509	400	0	484	26	1	
7	0	0	0	0	505	410	0	480	26	1	
8	0	0	0	0	509	416	0	478	26	1	
9	0	0	0	0	506	414	0	472	26	1	
10	0	0	0	0	508	396	0	473	26	1	
11	0	0	0	0	505	390	0	474	26	1	
12	0	0	0	0	506	390	0	474	26	1	
13	0	0	0	0	508	392	0	477	26	1	
14	0	0	0	0	508	398	0	480	26	1	
15	0	0	0	0	512	400	0	478	26	1	
0	0	0	0	0	509	406	0	475	26	1	
1	0	0	0	0	510	419	0	473	26	1	
2	0	0	0	0	509	423	0	475	26	1	
3	0	0	0	0	507	422	0	476	26	1	
4	0	0	0	0	509	417	0	479	26	1	
5	0	0	0	0	513	417	0	480	26	1	
6	0	0	0	0	511	422	0	482	26	1	
7	0	0	0	0	510	422	0	479	26	1	
8	0	0	0	0	502	419	0	476	26	1	
9	0	0	0	0	508	420	0	474	26	1	
10	0	0	0	0	500	425	0	473	26	1	
11	0	0	0	0	510	435	0	476	26	1	
12	0	0	0	0	509	448	0	492	26	1	
13	0	0	0	0	508	456	0	523	26	1	
14	0	0	0	0	505	452	0	531	26	1	
15	0	0	0	0	504	443	0	526	26	1	
0	0	0	0	0	508	441	0	514	26	1	
1	0	0	0	0	511	451	0	515	26	1	
2	0	0	0	0	514	452	0	536	26	1	
3	0	0	0	0	510	454	0	543	26	1	
4	0	0	0	0	504	458	0	560	26	1	
5	0	0	0	0	507	457	0	566	26	1	
6	0	0	0	0	505	447	0	568	26	1	
7	0	0	0	0	511	446	0	576	26	1	
8	0	0	0	0	505	446	0	570	26	1	
9	0	0	0	0	503	454	0	577	26	1	
10	0	0	0	0	510	464	0	578	26	1	
11	0	0	0	0	508	470	0	564	26	1	
12	0	0	0	0	512	469	0	554	26	1	
13	0	0	0	0	511	467	0	561	26	1	
14	0	0	0	0	510	467	0	534	26	1	
15	0	0	0	0	508	464	0	540	26	1	
0	0	0	0	0	511	459	0	548	26	1	
1	0	0	0	0	507	451	0	544	26	1	
2	0	0	0	0	503	453	0	534	26	1	
3	0	0	0	0	511	467	0	523	26	1	
4	0	0	0	0	507	471	0	513	26	1	
5	0	0	0	0	511	474	0	506	26	1	
6	0	0	0	0	507	478	0	505	26	1	
7	0	0	0	0	516	483	0	499	26	1	
8	0	0	0	0	510	493	0	497	26	1	
9	0	0	0	0	508	497	0	512	26	1	
10	0	0	0	0	509	492	0	534	26	1	
11	0	0	0	0	504	496	0	539	26	1	
12	0	0	0	0	502	500	0	535	26	1	
13	0	0	0	0	509	503	0	526	26	1	
14	0	0	0	0	512	504	0	516	26	1	
15	0	0	0	0	509	498	0	519	26	1	
0	0	0	0	0	502	492	0	534	26	1	
1	0	0	0	0	511	488	0	530	26	1	
2	0	0	0	0	509	491	0	522	26	1	
3	0	0	0	0	506	485	0	514	26	1	
4	0	0	0	0	510	483	0	508	26	1	
5	0	0	0	0	509	489	0	505	26	1	
6	0	0	0	0	507	496	0	507	26	1	
7	0	0	0	0	504	503	0	509	26	1	
8	0	0	0	0	508	507	0	502	26	1	
9	0	0	0	0	507	510	0	515	26	1	
10	0	0	0	0	510	507	0	540	26	1	
11	0	0	0	0	513	508	0	547	26	1	
12	0	0	0	0	504	513	0	542	26	1	
13	0	0	0	0	510	519	0	544	26	1	
14	0	0	0	0	507	520	0	541	26	1	
15	0	0	0	0	510	517	0	537	26	1	
0	0	0	0	0	512	517	0	556	26	1	
1	0	0	0	0	504	524	0	562	26	1	
2	0	0	0	0	511	515	0	552	26	1	
3	0	0	0	0	509	506	0	541	26	1	
4	0	0	0	0	505	508	0	530	26	1	
5	0	0	0	0	504	517	0	521	26	1	
6	0	0	0	0	507	522	0	517	26	1	
7	0	0	0	0	513	519	0	512	26	1	
8	0	0	0	0	505	515	0	518	26	1	
9	0	0	0	0	507	514	0	537	26	1	
10	0	0	0	0	506	510	0	542	26	1	
11	0	0	0	0	512	501	0	536	26	1	
12	0	0	0	0	504	515	0	527	26	1	
13	0	0	0	0	503	531	0	521	26	1	
14	0	0	0	0	504	543	0	513	26	1	
15	0	0	0	0	512	543	0	508	26	1	
0	0	0	0	0	515	540	0	503	26	1	
1	0	0	0	0	503	540	0	517	26	1	
2	0	0	0	0	510	536	0	538	26	1	
3	0	0	0	0	501	534	0	542	26	1	
4	0	0	0	0	505	524	0	535	26	1	
5	0	0	0	0	511	516	0	528	26	1	
6	0	0	0	0	510	523	0	520	26	1	
7	0	0	0	0	505	534	0	525	26	1	
8	0	0	0	0	505	532	0	538	26	1	
9	0	0	0	0	511	517	0	539	26	1	
10	0	0	0	0	514	496	0	532	26	1	
11	0	0	0	0	515	493	0	522	26	1	
12	0	0	0	0	514	498	0	522	26	1	
13	0	0	0	0	510	499	0	524	26	1	
14	0	0	0	0	498	504	0	521	26	1	
15	0	0	0	0	507	515	0	514	26	1	
0	0	0	0	0	511	531	0	507	26	1	
1	0	0	0	0	509	543	0	515	26	1	
2	0	0	0	0	504	546	0	535	26	1	
3	0	0	0	0	518	546	0	540	26	1	
4	0	0	0	0	504	539	0	532	26	1	
5	0	0	0	0	507	529	0	520	26	1	
6	0	0	0	0	506	522	0	511	26	1	
7	0	0	0	0	504	531	0	504	26	1	
8	0	0	0	0	515	535	0	499	26	1	
9	0	0	0	0	507	535	0	495	26	1	
10	0	0	0	0	508	536	0	508	26	1	
11	0	0	0	0	504	545	0	530	26	1	
12	0	0	0	0	507	557	0	548	26	1	
13	0	0	0	0	508	555	0	527	26	1	
14	0	0	0	0	506	547	0	539	26	1	
15	0	0	0	0	507	547	0	540	26	1	
0	0	0	0	0	506	550	0	529	26	1	
1	0	0	0	0	509	546	0	519	26	1	
2	0	0	0	0	508	543	0	507	26	1	
3	0	0	0	0	514	543	0	498	26	1	
4	0	0	0	0	513	544	0	492	26	1	
5	0	0	0	0	511	550	0	486	26	1	
6	0	0	0	0	511	541	0	484	26	1	
7	0	0	0	0	500	527	0	489	26	1	
8	0	0	0	0	503	526	0	481	26	1	
9	0	0	0	0	507	531	0	495	26	1	
10	0	0	0	0	510	541	0	515	26	1	
11	0	0	0	0	502	549	0	517	26	1	
12	0	0	0	0	507	563	0	513	26	1	
13	0	0	0	0	508	572	0	515	26	1	
14	0	0	0	0	514	572	0	507	26	1	
15	0	0	0	0	507	574	0	509	26	1	
0	0	0	0	0	513	571	0	524	26	1	
1	0	0	0	0	515	563	0	522	26	1	
2	0	0	0	0	513	556	0	513	26	1	
3	0	0	0	0	507	556	0	499	26	1	
4	0	0	0	0	504	560	0	489	26	1	
5	0	0	0	0	507	566	0	482	26	1	
6	0	0	0	0	504	568	0	476	26	1	
7	0	0	0	0	509	572	0	472	26	1	
8	0	0	0	0	508	575	0	472	26	1	
9	0	0	0	0	515	572	0	480	26	1	
10	0	0	0	0	509	569	0	501	26	1	
11	0	0	0	0	505	564	0	506	26	1	
12	0	0	0	0	499	575	0	500	26	1	
13	0	0	0	0	507	588	0	491	26	1	
14	0	0	0	0	509	591	0	485	26	1	
15	0	0	0	0	513	588	0	484	26	1	
0	0	0	0	0	504	588	0	500	26	1	
1	0	0	0	0	508	588	0	506	26	1	
2	0	0	0	0	511	590	0	499	26	1	
3	0	0	0	0	505	594	0	491	26	1	
4	0	0	0	0	512	589	0	487	26	1	
5	0	0	0	0	513	583	0	480	26	1	
6	0	0	0	0	509	573	0	476	26	1	
7	0	0	0	0	509	562	0	472	26	1	
8	0	0	0	0	509	560	0	480	26	1	
9	0	0	0	0	514	564	0	501	26	1	
10	0	0	0	0	509	568	0	505	26	1	
11	0	0	0	0	502	569	0	500	26	1	
12	0	0	0	0	501	573	0	503	26	1	
13	0	0	0	0	513	579	0	499	26	1	
14	0	0	0	0	505	587	0	491	26	1	
15	0	0	0	0	511	591	0	487	26	1	
0	0	0	0	0	504	590	0	481	26	1	
1	0	0	0	0	504	586	0	477	26	1	
2	0	0	0	0	511	578	0	484	26	1	
3	0	0	0	0	505	572	0	508	26	1	
4	0	0	0	0	509	567	0	513	26	1	
5	0	0	0	0	501	563	0	508	26	1	
6	0	0	0	0	511	553	0	498	26	1	
7	0	0	0	0	510	552	0	492	26	1	
8	0	0	0	0	504	563	0	485	26	1	
9	0	0	0	0	510	569	0	482	26	1	
10	0	0	0	0	509	567	0	500	26	1	
11	0	0	0	0	519	563	0	513	26	1	
12	0	0	0	0	506	554	0	513	26	1	
13	0	0	0	0	502	544	0	505	26	1	
14	0	0	0	0	508	537	0	499	26	1	
15	0	0	0	0	507	536	0	491	26	1	
0	0	0	0	0	507	543	0	498	26	1	
1	0	0	0	0	510	548	0	509	26	1	
2	0	0	0	0	510	542	0	508	26	1	
3	0	0	0	0	512	542	0	501	26	1	
4	0	0	0	0	509	551	0	491	26	1	
5	0	0	0	0	510	555	0	486	26	1	
6	0	0	0	0	502	561	0	481	26	1	
7	0	0	0	0	505	566	0	480	26	1	
8	0	0	0	0	507	560	0	479	26	1	
9	0	0	0	0	507	537	0	497	26	1	
10	0	0	0	0	504	522	0	513	26	1	
11	0	0	0	0	511	511	0	512	26	1	
12	0	0	0	0	506	511	0	508	26	1	
13	0	0	0	0	509	513	0	499	26	1	
14	0	0	0	0	511	516	0	503	26	1	
15	0	0	0	0	510	515	0	517	26	1	
0	0	0	0	0	508	510	0	532	26	1	
1	0	0	0	0	509	505	0	530	26	1	
2	0	0	0	0	510	503	0	521	26	1	
3	0	0	0	0	507	501	0	513	26	1	
4	0	0	0	0	510	492	0	502	26	1	
5	0	0	0	0	510	482	0	496	26	1	
6	0	0	0	0	506	470	0	492	26	1	
7	0	0	0	0	511	471	0	490	26	1	
8	0	0	0	0	510	483	0	486	26	1	
9	0	0	0	0	505	492	0	499	26	1	
10	0	0	0	0	505	485	0	523	26	1	
11	0	0	0	0	504	480	0	526	26	1	
12	0	0	0	0	511	478	0	519	26	1	
13	0	0	0	0	510	484	0	509	26	1	
14	0	0	0	0	511	487	0	499	26	1	
15	0	0	0	0	503	478	0	504	26	1	
0	0	0	0	0	511	475	0	516	26	1	
1	0	0	0	0	510	480	0	515	26	1	
2	0	0	0	0	509	485	0	513	26	1	
3	0	0	0	0	508	484	0	503	26	1	
4	0	0	0	0	507	486	0	498	26	1	
5	0	0	0	0	509	482	0	495	26	1	
6	0	0	0	0	508	476	0	493	26	1	
7	0	0	0	0	508	475	0	491	26	1	
8	0	0	0	0	508	476	0	490	26	1	
9	0	0	0	0	505	469	0	489	26	1	
10	0	0	0	0	507	463	0	494	26	1	
11	0	0	0	0	507	463	0	522	26	1	
12	0	0	0	0	504	468	0	536	26	1	
13	0	0	0	0	506	475	0	550	26	1	
14	0	0	0	0	506	479	0	564	26	1	
15	0	0	0	0	504	479	0	564	26	1	
0	0	0	0	0	512	482	0	559	26	1	
1	0	0	0	0	508	481	0	546	26	1	
2	0	0	0	0	503	473	0	531	26	1	
3	0	0	0	0	514	471	0	519	26	1	
4	0	0	0	0	507	467	0	513	26	1	
5	0	0	0	0	505	467	0	520	26	1	
6	0	0	0	0	506	462	0	505	26	1	
7	0	0	0	0	507	457	0	504	26	1	
8	0	0	0	0	511	460	0	504	26	1	
9	0	0	0	0	508	462	0	507	26	1	
10	0	0	0	0	512	460	0	509	26	1	
11	0	0	0	0	508	455	0	532	26	1	
12	0	0	0	0	511	451	0	547	26	1	
13	0	0	0	0	505	464	0	548	26	1	
14	0	0	0	0	514	479	0	546	26	1	
15	0	0	0	0	507	489	0	560	26	1	
0	0	0	0	0	502	503	0	562	26	1	
1	0	0	0	0	505	515	0	550	26	1	
2	0	0	0	0	511	516	0	536	26	1	
3	0	0	0	0	507	499	0	524	26	1	
4	0	0	0	0	509	483	0	516	26	1	
5	0	0	0	0	509	483	0	511	26	1	
6	0	0	0	0	506	487	0	506	26	1	
7	0	0	0	0	503	494	0	504	26	1	
8	0	0	0	0	514	488	0	508	26	1	
9	0	0	0	0	504	483	0	529	26	1	
10	0	0	0	0	515	479	0	537	26	1	
11	0	0	0	0	515	478	0	533	26	1	
12	0	0	0	0	510	485	0	535	26	1	
13	0	0	0	0	502	494	0	536	26	1	
14	0	0	0	0	503	496	0	532	26	1	
15	0	0	0	0	507	496	0	523	26	1	
0	0	0	0	0	507	495	0	515	26	1	
1	0	0	0	0	505	488	0	524	26	1	
2	0	0	0	0	505	481	0	543	26	1	
3	0	0	0	0	506	477	0	547	26	1	
4	0	0	0	0	511	470	0	540	26	1	
5	0	0	0	0	519	475	0	530	26	1	
6	0	0	0	0	507	480	0	523	26	1	
7	0	0	0	0	508	473	0	519	26	1	
8	0	0	0	0	508	481	0	514	26	1	
9	0	0	0	0	502	477	0	533	26	1	
10	0	0	0	0	512	467	0	547	26	1	
11	0	0	0	0	512	476	0	546	26	1	
12	0	0	0	0	511	489	0	539	26	1	
13	0	0	0	0	507	497	0	532	26	1	
14	0	0	0	0	504	510	0	523	26	1	
15	0	0	0	0	505	510	0	515	26	1	
0	0	0	0	0	503	496	0	522	26	1	
1	0	0	0	0	502	492	0	539	26	1	
2	0	0	0	0	509	493	0	543	26	1	
3	0	0	0	0	508	490	0	539	26	1	
4	0	0	0	0	512	489	0	532	26	1	
5	0	0	0	0	512	489	0	528	26	1	
6	0	0	0	0	511	480	0	523	26	1	
7	0	0	0	0	510	483	0	520	26	1	
8	0	0	0	0	501	491	0	517	26	1	
9	0	0	0	0	508	498	0	530	26	1	
10	0	0	0	0	506	508	0	549	26	1	
11	0	0	0	0	508	508	0	550	26	1	
12	0	0	0	0	512	501	0	545	26	1	
13	0	0	0	0	503	497	0	549	26	1	
14	0	0	0	0	511	496	0	536	26	1	
15	0	0	0	0	506	492	0	538	26	1	
0	0	0	0	0	508	487	0	555	26	1	
1	0	0	0	0	513	494	0	556	26	1	
2	0	0	0	0	514	499	0	546	26	1	
3	0	0	0	0	501	496	0	536	26	1	
4	0	0	0	0	512	492	0	526	26	1	
5	0	0	0	0	511	493	0	517	26	1	
6	0	0	0	0	508	498	0	510	26	1	
7	0	0	0	0	507	498	0	504	26	1	
8	0	0	0	0	519	497	0	499	26	1	
9	0	0	0	0	510	495	0	505	26	1	
10	0	0	0	0	503	498	0	530	26	1	
11	0	0	0	0	507	500	0	538	26	1	
12	0	0	0	0	504	496	0	534	26	1	
13	0	0	0	0	502	494	0	526	26	1	
14	0	0	0	0	505	491	0	516	26	1	
15	0	0	0	0	506	482	0	515	26	1	
0	0	0	0	0	506	477	0	531	26	1	
1	0	0	0	0	513	476	0	535	26	1	
2	0	0	0	0	508	474	0	528	26	1	
3	0	0	0	0	508	486	0	520	26	1	
4	0	0	0	0	502	492	0	510	26	1	
5	0	0	0	0	513	489	0	503	26	1	
6	0	0	0	0	508	487	0	497	26	1	
7	0	0	0	0	506	482	0	492	26	1	
8	0	0	0	0	510	478	0	500	26	1	
9	0	0	0	0	507	487	0	519	26	1	
10	0	0	0	0	506	486	0	524	26	1	
11	0	0	0	0	509	487	0	520	26	1	
12	0	0	0	0	504	497	0	522	26	1	
13	0	0	0	0	507	510	0	519	26	1	
14	0	0	0	0	511	517	0	512	26	1	
15	0	0	0	0	507	511	0	504	26	1	
0	0	0	0	0	505	508	0	497	26	1	
1	0	0	0	0	505	512	0	493	26	1	
2	0	0	0	0	506	517	0	503	26	1	
3	0	0	0	0	507	511	0	525	26	1	
4	0	0	0	0	508	504	0	532	26	1	
5	0	0	0	0	509	493	0	548	26	1	
6	0	0	0	0	509	497	0	554	26	1	
7	0	0	0	0	511	507	0	553	26	1	
8	0	0	0	0	510	505	0	557	26	1	
9	0	0	0	0	511	492	0	548	26	1	
10	0	0	0	0	513	475	0	553	26	1	
11	0	0	0	0	503	472	0	556	26	1	
12	0	0	0	0	511	475	0	547	26	1	
13	0	0	0	0	502	474	0	532	26	1	
14	0	0	0	0	510	472	0	520	26	1	
15	0	0	0	0	506	465	0	508	26	1	
0	0	0	0	0	505	467	0	515	26	1	
1	0	0	0	0	505	478	0	526	26	1	
2	0	0	0	0	510	481	0	523	26	1	
3	0	0	0	0	508	484	0	517	26	1	
4	0	0	0	0	508	487	0	523	26	1	
5	0	0	0	0	505	494	0	499	26	1	
6	0	0	0	0	514	507	0	493	26	1	
7	0	0	0	0	510	513	0	489	26	1	
8	0	0	0	0	512	510	0	486	26	1	
9	0	0	0	0	509	502	0	504	26	1	
10	0	0	0	0	501	490	0	520	26	1	
11	0	0	0	0	507	483	0	535	26	1	
12	0	0	0	0	509	482	0	510	26	1	
13	0	0	0	0	515	481	0	504	26	1	
14	0	0	0	0	514	485	0	506	26	1	
15	0	0	0	0	508	478	0	502	26	1	
0	0	0	0	0	514	467	0	508	26	1	
1	0	0	0	0	507	473	0	526	26	1	
2	0	0	0	0	510	486	0	527	26	1	
3	0	0	0	0	508	494	0	519	26	1	
4	0	0	0	0	502	507	0	506	26	1	
5	0	0	0	0	504	515	0	496	26	1	
6	0	0	0	0	511	512	0	490	26	1	
7	0	0	0	0	501	510	0	487	26	1	
8	0	0	0	0	510	514	0	483	26	1	
9	0	0	0	0	508	515	0	498	26	1	
10	0	0	0	0	508	515	0	517	26	1	
11	0	0	0	0	514	515	0	520	26	1	
12	0	0	0	0	509	512	0	515	26	1	
13	0	0	0	0	508	513	0	503	26	1	
14	0	0	0	0	507	513	0	494	26	1	
15	0	0	0	0	511	515	0	499	26	1	
0	0	0	0	0	507	512	0	513	26	1	
1	0	0	0	0	510	501	0	513	26	1	
2	0	0	0	0	512	489	0	508	26	1	
3	0	0	0	0	503	481	0	500	26	1	
4	0	0	0	0	513	485	0	492	26	1	
5	0	0	0	0	506	494	0	487	26	1	
6	0	0	0	0	501	500	0	484	26	1	
7	0	0	0	0	504	502	0	480	26	1	
8	0	0	0	0	512	507	0	477	26	1	
9	0	0	0	0	515	509	0	489	26	1	
10	0	0	0	0	504	496	0	509	26	1	
11	0	0	0	0	507	492	0	515	26	1	
12	0	0	0	0	507	496	0	509	26	1	
13	0	0	0	0	512	499	0	510	26	1	
14	0	0	0	0	511	497	0	505	26	1	
15	0	0	0	0	504	502	0	504	26	1	
0	0	0	0	0	505	509	0	524	26	1	
1	0	0	0	0	513	508	0	532	26	1	
2	0	0	0	0	513	511	0	522	26	1	
3	0	0	0	0	511	517	0	510	26	1	
4	0	0	0	0	510	515	0	499	26	1	
5	0	0	0	0	504	515	0	489	26	1	
6	0	0	0	0	504	523	0	482	26	1	
7	0	0	0	0	509	528	0	476	26	1	
8	0	0	0	0	508	532	0	484	26	1	
9	0	0	0	0	505	526	0	500	26	1	
10	0	0	0	0	507	517	0	503	26	1	
11	0	0	0	0	512	512	0	496	26	1	
12	0	0	0	0	510	514	0	488	26	1	
13	0	0	0	0	503	513	0	482	26	1	
14	0	0	0	0	505	508	0	478	26	1	
15	0	0	0	0	510	506	0	482	26	1	
0	0	0	0	0	510	506	0	495	26	1	
1	0	0	0	0	505	505	0	505	26	1	
2	0	0	0	0	505	508	0	504	26	1	
3	0	0	0	0	511	515	0	497	26	1	
4	0	0	0	0	509	516	0	491	26	1	
5	0	0	0	0	515	521	0	485	26	1	
6	0	0	0	0	510	524	0	481	26	1	
7	0	0	0	0	510	527	0	480	26	1	
8	0	0	0	0	502	523	0	480	26	1	
9	0	0	0	0	507	523	0	499	26	1	
10	0	0	0	0	506	523	0	510	26	1	
11	0	0	0	0	507	522	0	507	26	1	
12	0	0	0	0	510	526	0	507	26	1	
13	0	0	0	0	504	524	0	507	26	1	
14	0	0	0	0	507	518	0	503	26	1	
15	0	0	0	0	509	523	0	495	26	1	
0	0	0	0	0	505	530	0	489	26	1	
1	0	0	0	0	512	532	0	497	26	1	
2	0	0	0	0	508	527	0	519	26	1	
3	0	0	0	0	511	518	0	525	26	1	
4	0	0	0	0	505	509	0	519	26	1	
5	0	0	0	0	511	505	0	510	26	1	
6	0	0	0	0	505	502	0	504	26	1	
7	0	0	0	0	503	497	0	498	26	1	
8	0	0	0	0	508	497	0	496	26	1	
9	0	0	0	0	510	500	0	494	26	1	
10	0	0	0	0	506	507	0	510	26	1	
11	0	0	0	0	507	520	0	532	26	1	
12	0	0	0	0	515	530	0	537	26	1	
13	0	0	0	0	505	534	0	534	26	1	
14	0	0	0	0	509	535	0	547	26	1	
15	0	0	0	0	513	529	0	550	26	1	
0	0	0	0	0	505	521	0	539	26	1	
1	0	0	0	0	505	513	0	528	26	1	
2	0	0	0	0	505	506	0	517	26	1	
3	0	0	0	0	510	500	0	508	26	1	
4	0	0	0	0	510	497	0	501	26	1	
5	0	0	0	0	510	500	0	496	26	1	
6	0	0	0	0	511	505	0	494	26	1	
7	0	0	0	0	511	511	0	493	26	1	
8	0	0	0	0	505	514	0	493	26	1	
9	0	0	0	0	496	508	0	509	26	1	
10	0	0	0	0	511	505	0	533	26	1	
11	0	0	0	0	512	506	0	536	26	1	
12	0	0	0	0	507	504	0	534	26	1	
13	0	0	0	0	513	502	0	536	26	1	
14	0	0	0	0	505	499	0	527	26	1	
15	0	0	0	0	503	499	0	531	26	1	
0	0	0	0	0	505	500	0	546	26	1	
1	0	0	0	0	512	496	0	545	26	1	
2	0	0	0	0	508	491	0	537	26	1	
3	0	0	0	0	508	484	0	526	26	1	
4	0	0	0	0	505	483	0	517	26	1	
5	0	0	0	0	506	486	0	512	26	1	
6	0	0	0	0	511	489	0	508	26	1	
7	0	0	0	0	507	504	0	506	26	1	
8	0	0	0	0	512	520	0	502	26	1	
9	0	0	0	0	510	528	0	511	26	1	
10	0	0	0	0	512	531	0	538	26	1	
11	0	0	0	0	510	522	0	548	26	1	
12	0	0	0	0	507	508	0	540	26	1	
13	0	0	0	0	505	494	0	531	26	1	
14	0	0	0	0	508	484	0	524	26	1	
15	0	0	0	0	504	477	0	524	26	1	
0	0	0	0	0	511	480	0	540	26	1	
1	0	0	0	0	510	489	0	545	26	1	
2	0	0	0	0	510	494	0	537	26	1	
3	0	0	0	0	510	506	0	531	26	1	
4	0	0	0	0	509	511	0	522	26	1	
5	0	0	0	0	509	510	0	516	26	1	
6	0	0	0	0	513	508	0	511	26	1	
7	0	0	0	0	506	505	0	505	26	1	
8	0	0	0	0	505	496	0	502	26	1	
9	0	0	0	0	507	489	0	508	26	1	
