# OpenSignals Text File Format. Version 1
# {"98:D3:71:FD:62:12": {"position": 0, "device": "bitalino_rev", "device name": "98:D3:71:FD:62:12", "device connection": "BTH98:D3:71:FD:62:12", "sampling rate": 1000, "resolution": [4, 1, 1, 1, 1, 10, 10, 10, 10, 6, 6], "firmware version": 1282, "comments": "", "keywords": "", "mode": 0, "sync interval": 2, "date": "2024-4-19", "time": "9:58:17.798", "channels": [1, 2, 3, 4, 5, 6], "sensor": ["RAW", "RAW", "RAW", "RAW", "RAW", "RAW"], "label": ["A1", "A2", "A3", "A4", "A5", "A6"], "column": ["nSeq", "I1", "I2", "O1", "O2", "A1", "A2", "A3", "A4", "A5", "A6"], "special": [{}, {}, {}, {}, {}, {}], "digital IO": [0, 0, 1, 1], "convertedValues": 0}}
# EndOfHeader
0	0	0	0	0	510	500	0	537	39	28	
1	0	0	0	0	512	504	0	536	39	29	
2	0	0	0	0	504	506	0	536	39	28	
3	0	0	0	0	510	506	0	535	39	26	
4	0	0	0	0	508	505	0	534	39	23	
5	0	0	0	0	507	506	0	536	39	22	
6	0	0	0	0	503	505	0	539	39	23	
7	0	0	0	0	510	505	0	534	39	26	
8	0	0	0	0	515	508	0	528	39	28	
9	0	0	0	0	511	505	0	527	39	29	
10	0	0	0	0	511	497	0	529	39	29	
11	0	0	0	0	507	493	0	533	39	27	
12	0	0	0	0	504	492	0	536	39	24	
13	0	0	0	0	509	492	0	539	39	22	
14	0	0	0	0	507	492	0	538	39	23	
15	0	0	0	0	509	492	0	539	39	25	
0	0	0	0	0	508	498	0	536	39	27	
1	0	0	0	0	506	502	0	532	39	29	
2	0	0	0	0	509	508	0	532	39	29	
3	0	0	0	0	511	514	0	533	39	28	
4	0	0	0	0	506	515	0	545	39	25	
5	0	0	0	0	507	514	0	567	39	22	
6	0	0	0	0	506	515	0	595	39	22	
7	0	0	0	0	511	522	0	607	39	24	
8	0	0	0	0	510	523	0	611	39	27	
9	0	0	0	0	507	517	0	621	39	28	
10	0	0	0	0	508	513	0	615	39	29	
11	0	0	0	0	508	511	0	602	39	28	
12	0	0	0	0	511	510	0	587	39	26	
13	0	0	0	0	508	512	0	574	39	23	
14	0	0	0	0	510	514	0	566	39	22	
15	0	0	0	0	501	515	0	561	39	24	
0	0	0	0	0	509	514	0	560	39	26	
1	0	0	0	0	498	511	0	575	39	28	
2	0	0	0	0	506	512	0	594	39	29	
3	0	0	0	0	510	515	0	596	39	29	
4	0	0	0	0	512	518	0	591	39	27	
5	0	0	0	0	507	518	0	593	39	24	
6	0	0	0	0	509	515	0	587	39	22	
7	0	0	0	0	511	519	0	591	39	23	
8	0	0	0	0	500	523	0	606	39	25	
9	0	0	0	0	515	524	0	605	39	27	
10	0	0	0	0	508	523	0	594	39	29	
11	0	0	0	0	504	518	0	582	39	29	
12	0	0	0	0	507	515	0	569	39	28	
13	0	0	0	0	509	509	0	563	39	25	
14	0	0	0	0	509	505	0	558	39	22	
15	0	0	0	0	511	502	0	555	39	22	
0	0	0	0	0	506	497	0	553	39	24	
1	0	0	0	0	508	503	0	563	39	27	
2	0	0	0	0	508	516	0	588	39	28	
3	0	0	0	0	506	519	0	592	39	29	
4	0	0	0	0	507	518	0	587	39	28	
5	0	0	0	0	503	522	0	578	39	26	
6	0	0	0	0	502	525	0	570	39	23	
7	0	0	0	0	509	520	0	571	39	22	
8	0	0	0	0	513	515	0	589	39	24	
9	0	0	0	0	515	512	0	591	39	26	
10	0	0	0	0	509	511	0	585	39	28	
11	0	0	0	0	503	516	0	579	39	29	
12	0	0	0	0	510	519	0	572	39	29	
13	0	0	0	0	505	520	0	565	39	27	
14	0	0	0	0	505	515	0	560	39	24	
15	0	0	0	0	506	511	0	558	39	22	
0	0	0	0	0	508	511	0	566	39	23	
1	0	0	0	0	508	512	0	584	39	25	
2	0	0	0	0	511	514	0	587	39	27	
3	0	0	0	0	509	516	0	582	39	29	
4	0	0	0	0	507	516	0	572	39	29	
5	0	0	0	0	508	514	0	565	39	28	
6	0	0	0	0	513	507	0	559	39	25	
7	0	0	0	0	510	511	0	555	39	22	
8	0	0	0	0	509	519	0	548	39	22	
9	0	0	0	0	506	528	0	544	39	24	
10	0	0	0	0	515	536	0	558	39	27	
11	0	0	0	0	504	533	0	586	39	29	
12	0	0	0	0	508	528	0	594	39	29	
13	0	0	0	0	504	522	0	593	39	28	
14	0	0	0	0	512	515	0	585	39	26	
15	0	0	0	0	512	513	0	586	39	23	
0	0	0	0	0	509	515	0	580	39	22	
1	0	0	0	0	511	506	0	600	39	24	
2	0	0	0	0	508	506	0	606	39	26	
3	0	0	0	0	509	509	0	601	39	28	
4	0	0	0	0	513	513	0	594	39	29	
5	0	0	0	0	505	520	0	586	39	29	
6	0	0	0	0	503	518	0	580	39	27	
7	0	0	0	0	502	512	0	576	39	24	
8	0	0	0	0	501	509	0	590	39	22	
9	0	0	0	0	512	513	0	603	39	23	
10	0	0	0	0	510	516	0	611	39	25	
11	0	0	0	0	507	518	0	632	39	27	
12	0	0	0	0	506	520	0	633	39	29	
13	0	0	0	0	506	522	0	620	39	29	
14	0	0	0	0	512	524	0	623	39	28	
15	0	0	0	0	505	526	0	628	39	25	
0	0	0	0	0	511	525	0	619	39	22	
1	0	0	0	0	510	524	0	605	39	22	
2	0	0	0	0	512	519	0	600	39	24	
3	0	0	0	0	504	519	0	590	39	27	
4	0	0	0	0	507	516	0	580	39	29	
5	0	0	0	0	504	515	0	572	39	29	
6	0	0	0	0	511	519	0	563	39	28	
7	0	0	0	0	506	525	0	555	39	26	
8	0	0	0	0	510	527	0	548	39	23	
9	0	0	0	0	507	531	0	552	39	22	
10	0	0	0	0	504	539	0	577	39	24	
11	0	0	0	0	515	542	0	585	39	26	
12	0	0	0	0	508	539	0	583	39	28	
13	0	0	0	0	502	536	0	575	39	29	
14	0	0	0	0	510	536	0	567	39	29	
15	0	0	0	0	509	533	0	565	39	27	
0	0	0	0	0	508	528	0	580	39	24	
1	0	0	0	0	509	529	0	588	39	22	
2	0	0	0	0	512	538	0	584	39	23	
3	0	0	0	0	511	543	0	586	39	25	
4	0	0	0	0	506	544	0	568	39	27	
5	0	0	0	0	502	538	0	560	39	29	
6	0	0	0	0	506	530	0	552	39	29	
7	0	0	0	0	514	524	0	548	39	28	
8	0	0	0	0	509	519	0	553	39	25	
9	0	0	0	0	508	520	0	572	39	22	
10	0	0	0	0	504	528	0	580	39	22	
11	0	0	0	0	505	525	0	594	39	24	
12	0	0	0	0	507	506	0	604	39	27	
13	0	0	0	0	513	497	0	603	39	29	
14	0	0	0	0	508	503	0	613	39	29	
15	0	0	0	0	511	511	0	606	39	28	
0	0	0	0	0	505	512	0	588	39	26	
1	0	0	0	0	509	512	0	581	39	23	
2	0	0	0	0	511	512	0	573	39	22	
3	0	0	0	0	509	511	0	563	39	24	
4	0	0	0	0	504	511	0	555	39	26	
5	0	0	0	0	510	509	0	547	39	28	
6	0	0	0	0	511	507	0	542	39	29	
7	0	0	0	0	507	505	0	540	39	29	
8	0	0	0	0	507	504	0	554	39	27	
9	0	0	0	0	504	497	0	538	39	24	
10	0	0	0	0	503	497	0	535	39	22	
11	0	0	0	0	504	506	0	536	39	23	
12	0	0	0	0	506	508	0	543	39	25	
13	0	0	0	0	511	505	0	571	39	27	
14	0	0	0	0	511	505	0	582	39	29	
15	0	0	0	0	504	501	0	611	39	29	
0	0	0	0	0	509	499	0	604	39	28	
1	0	0	0	0	508	502	0	594	39	25	
2	0	0	0	0	506	505	0	577	39	22	
3	0	0	0	0	511	507	0	564	39	22	
4	0	0	0	0	510	506	0	552	39	25	
5	0	0	0	0	507	499	0	544	39	27	
6	0	0	0	0	508	499	0	539	39	29	
7	0	0	0	0	506	509	0	536	39	29	
8	0	0	0	0	507	518	0	535	39	28	
9	0	0	0	0	512	512	0	550	39	26	
10	0	0	0	0	511	502	0	570	39	23	
11	0	0	0	0	508	488	0	572	39	22	
12	0	0	0	0	516	478	0	566	39	24	
13	0	0	0	0	509	484	0	554	39	26	
14	0	0	0	0	506	490	0	545	39	28	
15	0	0	0	0	506	490	0	548	39	29	
0	0	0	0	0	509	491	0	560	39	29	
1	0	0	0	0	505	493	0	560	39	27	
2	0	0	0	0	501	492	0	552	39	24	
3	0	0	0	0	509	488	0	555	39	22	
4	0	0	0	0	515	481	0	552	39	23	
5	0	0	0	0	504	481	0	549	39	25	
6	0	0	0	0	514	483	0	543	39	27	
7	0	0	0	0	511	489	0	537	39	29	
8	0	0	0	0	511	490	0	531	39	29	
9	0	0	0	0	505	497	0	529	39	27	
10	0	0	0	0	509	510	0	533	39	25	
11	0	0	0	0	511	511	0	555	39	22	
12	0	0	0	0	505	507	0	564	39	22	
13	0	0	0	0	509	506	0	560	39	25	
14	0	0	0	0	510	506	0	551	39	27	
15	0	0	0	0	505	508	0	544	39	29	
0	0	0	0	0	505	509	0	540	39	29	
1	0	0	0	0	505	511	0	553	39	28	
2	0	0	0	0	512	512	0	564	39	26	
3	0	0	0	0	509	510	0	560	39	23	
4	0	0	0	0	510	508	0	553	39	22	
5	0	0	0	0	507	502	0	543	39	24	
6	0	0	0	0	505	498	0	533	39	26	
7	0	0	0	0	504	497	0	524	39	28	
8	0	0	0	0	508	500	0	528	39	29	
9	0	0	0	0	504	505	0	543	39	29	
10	0	0	0	0	512	512	0	542	39	27	
11	0	0	0	0	509	518	0	536	39	24	
12	0	0	0	0	509	520	0	528	39	22	
13	0	0	0	0	511	524	0	522	39	23	
14	0	0	0	0	509	526	0	516	39	25	
15	0	0	0	0	508	543	0	511	39	28	
0	0	0	0	0	504	564	0	522	39	29	
1	0	0	0	0	509	583	0	522	39	29	
2	0	0	0	0	513	598	0	541	39	27	
3	0	0	0	0	515	612	0	543	39	24	
4	0	0	0	0	510	626	0	542	39	22	
5	0	0	0	0	507	640	0	545	39	22	
6	0	0	0	0	511	659	0	555	39	25	
7	0	0	0	0	506	680	0	542	39	27	
8	0	0	0	0	504	703	0	557	39	29	
9	0	0	0	0	506	718	0	561	39	29	
10	0	0	0	0	508	733	0	561	39	28	
11	0	0	0	0	504	748	0	550	39	26	
12	0	0	0	0	508	765	0	535	39	23	
13	0	0	0	0	504	781	0	523	39	22	
14	0	0	0	0	515	794	0	512	39	24	
15	0	0	0	0	514	801	0	504	39	26	
0	0	0	0	0	511	807	0	499	39	28	
1	0	0	0	0	500	810	0	496	39	29	
2	0	0	0	0	513	804	0	496	39	29	
3	0	0	0	0	506	795	0	495	39	27	
4	0	0	0	0	507	793	0	495	39	24	
5	0	0	0	0	505	793	0	513	39	22	
6	0	0	0	0	513	783	0	535	39	23	
7	0	0	0	0	508	765	0	537	39	25	
8	0	0	0	0	507	742	0	535	39	28	
9	0	0	0	0	505	722	0	551	39	29	
10	0	0	0	0	508	706	0	558	39	29	
11	0	0	0	0	509	686	0	551	39	27	
12	0	0	0	0	507	660	0	541	39	24	
13	0	0	0	0	506	632	0	528	39	22	
14	0	0	0	0	505	608	0	518	39	22	
15	0	0	0	0	510	579	0	510	39	25	
0	0	0	0	0	512	552	0	516	39	27	
1	0	0	0	0	506	526	0	532	39	29	
2	0	0	0	0	504	497	0	536	39	29	
3	0	0	0	0	507	467	0	531	39	28	
4	0	0	0	0	510	444	0	534	39	25	
5	0	0	0	0	505	438	0	531	39	23	
6	0	0	0	0	510	437	0	525	39	22	
7	0	0	0	0	513	435	0	518	39	24	
8	0	0	0	0	509	434	0	512	39	26	
9	0	0	0	0	508	431	0	507	39	28	
10	0	0	0	0	505	426	0	515	39	29	
11	0	0	0	0	510	409	0	537	39	29	
12	0	0	0	0	503	402	0	542	39	26	
13	0	0	0	0	509	407	0	536	39	24	
14	0	0	0	0	512	415	0	528	39	22	
15	0	0	0	0	512	412	0	532	39	23	
0	0	0	0	0	516	396	0	515	39	25	
1	0	0	0	0	509	378	0	511	39	28	
2	0	0	0	0	506	374	0	531	39	29	
3	0	0	0	0	505	379	0	543	39	29	
4	0	0	0	0	506	382	0	542	39	27	
5	0	0	0	0	501	386	0	533	39	24	
6	0	0	0	0	506	390	0	525	39	22	
7	0	0	0	0	510	396	0	519	39	22	
8	0	0	0	0	507	401	0	524	39	25	
9	0	0	0	0	505	407	0	534	39	27	
10	0	0	0	0	511	409	0	539	39	29	
11	0	0	0	0	509	409	0	556	39	29	
12	0	0	0	0	506	406	0	557	39	28	
13	0	0	0	0	510	405	0	547	39	25	
14	0	0	0	0	515	411	0	546	39	23	
15	0	0	0	0	507	417	0	552	39	22	
0	0	0	0	0	508	423	0	547	39	24	
1	0	0	0	0	504	428	0	536	39	26	
2	0	0	0	0	509	430	0	536	39	28	
3	0	0	0	0	508	432	0	530	39	29	
4	0	0	0	0	508	438	0	523	39	29	
5	0	0	0	0	504	442	0	518	39	26	
6	0	0	0	0	513	433	0	513	39	23	
7	0	0	0	0	509	423	0	507	39	22	
8	0	0	0	0	505	422	0	505	39	23	
9	0	0	0	0	503	427	0	510	39	25	
10	0	0	0	0	513	438	0	534	39	28	
11	0	0	0	0	507	447	0	543	39	29	
12	0	0	0	0	508	454	0	539	39	29	
13	0	0	0	0	509	451	0	532	39	27	
14	0	0	0	0	510	449	0	526	39	24	
15	0	0	0	0	509	452	0	521	39	22	
0	0	0	0	0	505	457	0	537	39	22	
1	0	0	0	0	501	467	0	546	39	25	
2	0	0	0	0	508	472	0	542	39	27	
3	0	0	0	0	507	470	0	536	39	29	
4	0	0	0	0	509	466	0	528	39	29	
5	0	0	0	0	511	459	0	520	39	28	
6	0	0	0	0	507	455	0	515	39	25	
7	0	0	0	0	505	459	0	511	39	23	
8	0	0	0	0	510	462	0	510	39	22	
9	0	0	0	0	514	462	0	508	39	24	
10	0	0	0	0	510	463	0	528	39	26	
11	0	0	0	0	516	467	0	540	39	28	
12	0	0	0	0	507	475	0	551	39	29	
13	0	0	0	0	504	476	0	567	39	29	
14	0	0	0	0	510	472	0	566	39	26	
15	0	0	0	0	510	472	0	587	39	23	
0	0	0	0	0	508	475	0	571	39	22	
1	0	0	0	0	504	476	0	553	39	23	
2	0	0	0	0	511	479	0	544	39	26	
3	0	0	0	0	508	481	0	542	39	28	
4	0	0	0	0	514	484	0	535	39	29	
5	0	0	0	0	507	486	0	526	39	29	
6	0	0	0	0	512	487	0	519	39	27	
7	0	0	0	0	504	488	0	533	39	24	
8	0	0	0	0	506	488	0	514	39	22	
9	0	0	0	0	502	483	0	511	39	22	
10	0	0	0	0	505	483	0	528	39	25	
11	0	0	0	0	512	487	0	549	39	27	
12	0	0	0	0	513	491	0	553	39	29	
13	0	0	0	0	505	479	0	548	39	29	
14	0	0	0	0	509	463	0	540	39	28	
15	0	0	0	0	511	464	0	531	39	25	
0	0	0	0	0	504	472	0	521	39	23	
1	0	0	0	0	510	480	0	523	39	22	
2	0	0	0	0	505	486	0	545	39	24	
3	0	0	0	0	505	487	0	550	39	26	
4	0	0	0	0	510	486	0	544	39	28	
5	0	0	0	0	507	488	0	535	39	29	
6	0	0	0	0	507	494	0	527	39	29	
7	0	0	0	0	506	499	0	522	39	26	
8	0	0	0	0	511	505	0	537	39	23	
9	0	0	0	0	507	494	0	546	39	22	
10	0	0	0	0	511	484	0	540	39	23	
11	0	0	0	0	510	478	0	531	39	26	
12	0	0	0	0	507	480	0	519	39	28	
13	0	0	0	0	507	484	0	513	39	29	
14	0	0	0	0	506	487	0	508	39	29	
15	0	0	0	0	513	485	0	504	39	27	
0	0	0	0	0	513	483	0	510	39	24	
1	0	0	0	0	501	482	0	531	39	22	
2	0	0	0	0	505	484	0	539	39	22	
3	0	0	0	0	517	488	0	535	39	25	
4	0	0	0	0	515	491	0	536	39	27	
5	0	0	0	0	510	492	0	535	39	29	
6	0	0	0	0	503	491	0	529	39	29	
7	0	0	0	0	507	494	0	521	39	28	
8	0	0	0	0	506	496	0	515	39	25	
9	0	0	0	0	506	497	0	523	39	23	
10	0	0	0	0	509	498	0	551	39	22	
11	0	0	0	0	504	491	0	548	39	24	
12	0	0	0	0	509	484	0	542	39	26	
13	0	0	0	0	505	480	0	532	39	28	
14	0	0	0	0	508	483	0	522	39	29	
15	0	0	0	0	508	490	0	516	39	29	
0	0	0	0	0	514	494	0	513	39	26	
1	0	0	0	0	507	496	0	510	39	23	
2	0	0	0	0	508	499	0	523	39	22	
3	0	0	0	0	508	504	0	544	39	23	
4	0	0	0	0	509	508	0	546	39	26	
5	0	0	0	0	511	510	0	543	39	28	
6	0	0	0	0	508	509	0	556	39	29	
7	0	0	0	0	508	502	0	558	39	29	
8	0	0	0	0	508	499	0	547	39	27	
9	0	0	0	0	505	505	0	534	39	24	
10	0	0	0	0	503	511	0	525	39	22	
11	0	0	0	0	508	512	0	513	39	22	
12	0	0	0	0	513	507	0	507	39	25	
13	0	0	0	0	504	503	0	503	39	27	
14	0	0	0	0	506	505	0	500	39	29	
15	0	0	0	0	507	514	0	499	39	29	
0	0	0	0	0	510	517	0	498	39	28	
1	0	0	0	0	515	515	0	520	39	25	
2	0	0	0	0	507	514	0	534	39	23	
3	0	0	0	0	504	511	0	535	39	22	
4	0	0	0	0	512	510	0	529	39	24	
5	0	0	0	0	505	511	0	527	39	26	
6	0	0	0	0	506	513	0	519	39	28	
7	0	0	0	0	505	512	0	522	39	29	
8	0	0	0	0	505	509	0	537	39	29	
9	0	0	0	0	504	507	0	531	39	26	
10	0	0	0	0	513	510	0	523	39	23	
11	0	0	0	0	504	512	0	510	39	22	
12	0	0	0	0	513	512	0	500	39	23	
13	0	0	0	0	512	513	0	494	39	26	
14	0	0	0	0	508	514	0	489	39	28	
15	0	0	0	0	508	518	0	486	39	29	
0	0	0	0	0	503	522	0	484	39	29	
1	0	0	0	0	502	523	0	491	39	27	
2	0	0	0	0	508	519	0	514	39	24	
3	0	0	0	0	511	522	0	519	39	22	
4	0	0	0	0	510	522	0	513	39	23	
5	0	0	0	0	508	523	0	504	39	25	
6	0	0	0	0	511	526	0	495	39	27	
7	0	0	0	0	508	524	0	496	39	29	
8	0	0	0	0	504	524	0	510	39	29	
9	0	0	0	0	510	528	0	513	39	28	
10	0	0	0	0	509	537	0	510	39	25	
11	0	0	0	0	510	545	0	503	39	23	
12	0	0	0	0	505	542	0	494	39	22	
13	0	0	0	0	511	545	0	487	39	24	
14	0	0	0	0	508	546	0	481	39	26	
15	0	0	0	0	512	542	0	478	39	28	
0	0	0	0	0	504	536	0	489	39	29	
1	0	0	0	0	512	532	0	506	39	29	
2	0	0	0	0	508	533	0	511	39	26	
3	0	0	0	0	508	541	0	508	39	23	
4	0	0	0	0	504	556	0	512	39	22	
5	0	0	0	0	507	556	0	507	39	23	
6	0	0	0	0	505	542	0	500	39	26	
7	0	0	0	0	511	537	0	494	39	28	
8	0	0	0	0	508	537	0	491	39	29	
9	0	0	0	0	509	540	0	483	39	29	
10	0	0	0	0	512	545	0	492	39	27	
11	0	0	0	0	507	550	0	515	39	24	
12	0	0	0	0	507	550	0	519	39	22	
13	0	0	0	0	508	542	0	512	39	23	
14	0	0	0	0	509	543	0	520	39	25	
15	0	0	0	0	507	543	0	531	39	27	
0	0	0	0	0	508	547	0	523	39	29	
1	0	0	0	0	509	554	0	511	39	29	
2	0	0	0	0	509	559	0	496	39	28	
3	0	0	0	0	508	556	0	485	39	25	
4	0	0	0	0	510	550	0	487	39	23	
5	0	0	0	0	507	545	0	488	39	22	
6	0	0	0	0	504	549	0	486	39	24	
7	0	0	0	0	509	557	0	482	39	26	
8	0	0	0	0	503	561	0	480	39	28	
9	0	0	0	0	511	564	0	486	39	29	
10	0	0	0	0	504	567	0	505	39	29	
11	0	0	0	0	512	564	0	508	39	26	
12	0	0	0	0	508	563	0	502	39	23	
13	0	0	0	0	507	558	0	491	39	22	
14	0	0	0	0	506	560	0	483	39	23	
15	0	0	0	0	511	566	0	479	39	26	
0	0	0	0	0	509	566	0	472	39	28	
1	0	0	0	0	508	571	0	467	39	29	
2	0	0	0	0	505	572	0	464	39	29	
3	0	0	0	0	512	561	0	474	39	27	
4	0	0	0	0	504	556	0	497	39	24	
5	0	0	0	0	510	555	0	504	39	22	
6	0	0	0	0	507	552	0	520	39	23	
7	0	0	0	0	508	557	0	521	39	25	
8	0	0	0	0	504	563	0	513	39	27	
9	0	0	0	0	512	565	0	487	39	29	
10	0	0	0	0	513	563	0	472	39	29	
11	0	0	0	0	512	563	0	464	39	28	
12	0	0	0	0	510	566	0	459	39	25	
13	0	0	0	0	506	566	0	466	39	22	
14	0	0	0	0	503	564	0	471	39	22	
15	0	0	0	0	511	558	0	473	39	24	
0	0	0	0	0	508	546	0	493	39	26	
1	0	0	0	0	505	544	0	507	39	28	
2	0	0	0	0	503	551	0	503	39	29	
3	0	0	0	0	502	550	0	510	39	29	
4	0	0	0	0	512	547	0	499	39	26	
5	0	0	0	0	508	545	0	488	39	23	
6	0	0	0	0	509	545	0	478	39	22	
7	0	0	0	0	504	548	0	471	39	23	
8	0	0	0	0	508	550	0	466	39	26	
9	0	0	0	0	515	550	0	466	39	28	
10	0	0	0	0	511	548	0	485	39	29	
11	0	0	0	0	505	544	0	495	39	29	
12	0	0	0	0	511	536	0	492	39	27	
13	0	0	0	0	514	531	0	484	39	24	
14	0	0	0	0	499	528	0	476	39	22	
15	0	0	0	0	506	522	0	468	39	23	
0	0	0	0	0	509	520	0	462	39	25	
1	0	0	0	0	503	526	0	468	39	27	
2	0	0	0	0	513	528	0	486	39	29	
3	0	0	0	0	510	526	0	489	39	29	
4	0	0	0	0	506	521	0	484	39	28	
5	0	0	0	0	509	517	0	474	39	25	
6	0	0	0	0	505	520	0	467	39	22	
7	0	0	0	0	509	518	0	468	39	22	
8	0	0	0	0	507	518	0	483	39	24	
9	0	0	0	0	504	518	0	488	39	27	
10	0	0	0	0	508	518	0	481	39	28	
11	0	0	0	0	512	520	0	484	39	29	
12	0	0	0	0	507	519	0	469	39	29	
13	0	0	0	0	508	511	0	463	39	26	
14	0	0	0	0	512	500	0	459	39	23	
15	0	0	0	0	510	500	0	455	39	22	
0	0	0	0	0	511	501	0	464	39	23	
1	0	0	0	0	506	487	0	481	39	26	
2	0	0	0	0	506	472	0	484	39	28	
3	0	0	0	0	508	467	0	481	39	29	
4	0	0	0	0	504	467	0	485	39	29	
5	0	0	0	0	508	467	0	480	39	27	
6	0	0	0	0	510	466	0	473	39	24	
7	0	0	0	0	506	462	0	467	39	22	
8	0	0	0	0	510	459	0	461	39	23	
9	0	0	0	0	510	461	0	456	39	25	
10	0	0	0	0	506	467	0	452	39	27	
11	0	0	0	0	503	469	0	456	39	29	
12	0	0	0	0	508	469	0	481	39	29	
13	0	0	0	0	506	467	0	492	39	28	
14	0	0	0	0	514	465	0	508	39	25	
15	0	0	0	0	502	459	0	519	39	22	
0	0	0	0	0	509	455	0	512	39	22	
1	0	0	0	0	505	453	0	499	39	24	
2	0	0	0	0	503	449	0	487	39	27	
3	0	0	0	0	515	446	0	480	39	28	
4	0	0	0	0	510	443	0	471	39	29	
5	0	0	0	0	511	448	0	467	39	29	
6	0	0	0	0	505	455	0	465	39	26	
7	0	0	0	0	513	462	0	465	39	23	
8	0	0	0	0	507	460	0	464	39	22	
9	0	0	0	0	508	455	0	478	39	23	
10	0	0	0	0	512	451	0	502	39	26	
11	0	0	0	0	503	445	0	506	39	28	
12	0	0	0	0	506	433	0	501	39	29	
13	0	0	0	0	507	433	0	493	39	29	
14	0	0	0	0	505	437	0	485	39	27	
15	0	0	0	0	508	445	0	487	39	24	
0	0	0	0	0	504	450	0	504	39	22	
1	0	0	0	0	510	450	0	512	39	23	
2	0	0	0	0	508	446	0	504	39	25	
3	0	0	0	0	507	441	0	506	39	27	
4	0	0	0	0	509	443	0	505	39	29	
5	0	0	0	0	508	447	0	501	39	29	
6	0	0	0	0	505	450	0	495	39	28	
7	0	0	0	0	508	457	0	487	39	25	
8	0	0	0	0	510	452	0	486	39	22	
9	0	0	0	0	511	441	0	486	39	22	
10	0	0	0	0	508	440	0	506	39	24	
11	0	0	0	0	512	444	0	513	39	27	
12	0	0	0	0	506	451	0	508	39	28	
13	0	0	0	0	507	453	0	499	39	29	
14	0	0	0	0	509	455	0	489	39	28	
15	0	0	0	0	510	458	0	481	39	26	
0	0	0	0	0	509	455	0	472	39	23	
1	0	0	0	0	509	454	0	465	39	22	
2	0	0	0	0	507	456	0	464	39	23	
3	0	0	0	0	508	460	0	465	39	26	
4	0	0	0	0	503	457	0	464	39	28	
5	0	0	0	0	504	447	0	465	39	29	
6	0	0	0	0	513	440	0	463	39	29	
7	0	0	0	0	504	444	0	462	39	27	
8	0	0	0	0	506	455	0	458	39	24	
9	0	0	0	0	502	465	0	453	39	22	
10	0	0	0	0	503	466	0	454	39	23	
11	0	0	0	0	511	464	0	454	39	25	
12	0	0	0	0	511	463	0	457	39	27	
13	0	0	0	0	510	466	0	460	39	29	
14	0	0	0	0	507	463	0	463	39	29	
15	0	0	0	0	508	465	0	462	39	28	
0	0	0	0	0	511	465	0	460	39	25	
1	0	0	0	0	510	460	0	455	39	22	
2	0	0	0	0	506	456	0	463	39	22	
3	0	0	0	0	513	452	0	493	39	24	
4	0	0	0	0	512	454	0	508	39	27	
5	0	0	0	0	511	455	0	507	39	28	
6	0	0	0	0	508	460	0	499	39	29	
7	0	0	0	0	503	467	0	489	39	28	
8	0	0	0	0	506	473	0	479	39	26	
9	0	0	0	0	506	473	0	466	39	23	
10	0	0	0	0	506	469	0	462	39	22	
11	0	0	0	0	507	471	0	475	39	23	
12	0	0	0	0	509	468	0	498	39	26	
13	0	0	0	0	505	463	0	507	39	28	
14	0	0	0	0	513	462	0	528	39	29	
15	0	0	0	0	508	464	0	535	39	29	
0	0	0	0	0	510	468	0	537	39	27	
1	0	0	0	0	507	470	0	544	39	24	
2	0	0	0	0	509	470	0	538	39	22	
3	0	0	0	0	507	471	0	546	39	23	
4	0	0	0	0	511	473	0	561	39	25	
5	0	0	0	0	508	470	0	531	39	27	
6	0	0	0	0	506	462	0	513	39	29	
7	0	0	0	0	515	462	0	500	39	29	
8	0	0	0	0	511	471	0	489	39	28	
9	0	0	0	0	505	479	0	499	39	25	
10	0	0	0	0	505	479	0	514	39	22	
11	0	0	0	0	502	479	0	514	39	22	
12	0	0	0	0	507	475	0	508	39	24	
13	0	0	0	0	499	467	0	496	39	27	
14	0	0	0	0	513	467	0	487	39	28	
15	0	0	0	0	507	472	0	492	39	29	
0	0	0	0	0	511	475	0	507	39	28	
1	0	0	0	0	511	478	0	505	39	26	
2	0	0	0	0	511	484	0	505	39	23	
3	0	0	0	0	507	491	0	499	39	22	
4	0	0	0	0	509	496	0	493	39	23	
5	0	0	0	0	513	481	0	487	39	26	
6	0	0	0	0	506	463	0	483	39	28	
7	0	0	0	0	513	461	0	477	39	29	
8	0	0	0	0	508	475	0	473	39	29	
9	0	0	0	0	506	484	0	475	39	27	
10	0	0	0	0	501	482	0	477	39	24	
11	0	0	0	0	507	484	0	499	39	22	
12	0	0	0	0	510	484	0	508	39	23	
13	0	0	0	0	507	483	0	506	39	25	
14	0	0	0	0	512	486	0	497	39	27	
15	0	0	0	0	512	489	0	490	39	29	
0	0	0	0	0	508	488	0	486	39	29	
1	0	0	0	0	506	487	0	501	39	28	
2	0	0	0	0	502	486	0	514	39	25	
3	0	0	0	0	512	485	0	510	39	22	
4	0	0	0	0	512	481	0	502	39	22	
5	0	0	0	0	508	481	0	493	39	24	
6	0	0	0	0	509	481	0	483	39	27	
7	0	0	0	0	510	481	0	475	39	28	
8	0	0	0	0	504	483	0	478	39	29	
9	0	0	0	0	504	485	0	491	39	28	
10	0	0	0	0	509	482	0	492	39	26	
11	0	0	0	0	514	481	0	483	39	23	
12	0	0	0	0	509	485	0	475	39	22	
13	0	0	0	0	503	496	0	470	39	24	
14	0	0	0	0	495	506	0	466	39	26	
15	0	0	0	0	510	513	0	464	39	28	
0	0	0	0	0	512	513	0	463	39	29	
1	0	0	0	0	508	499	0	479	39	29	
2	0	0	0	0	505	493	0	496	39	27	
3	0	0	0	0	514	493	0	499	39	24	
4	0	0	0	0	510	492	0	496	39	22	
5	0	0	0	0	508	492	0	497	39	23	
6	0	0	0	0	512	489	0	489	39	25	
7	0	0	0	0	512	486	0	509	39	27	
8	0	0	0	0	502	486	0	509	39	29	
9	0	0	0	0	507	486	0	507	39	29	
10	0	0	0	0	514	483	0	496	39	28	
11	0	0	0	0	505	483	0	483	39	25	
12	0	0	0	0	507	492	0	473	39	22	
13	0	0	0	0	502	499	0	466	39	22	
14	0	0	0	0	510	504	0	460	39	24	
15	0	0	0	0	508	504	0	458	39	27	
0	0	0	0	0	511	498	0	463	39	28	
1	0	0	0	0	503	495	0	477	39	29	
2	0	0	0	0	514	496	0	498	39	28	
3	0	0	0	0	507	506	0	500	39	26	
4	0	0	0	0	504	502	0	492	39	23	
5	0	0	0	0	508	496	0	481	39	22	
6	0	0	0	0	508	492	0	472	39	24	
7	0	0	0	0	510	487	0	463	39	26	
8	0	0	0	0	507	482	0	459	39	28	
9	0	0	0	0	501	482	0	455	39	29	
10	0	0	0	0	510	485	0	452	39	29	
11	0	0	0	0	510	487	0	462	39	27	
12	0	0	0	0	503	489	0	484	39	24	
13	0	0	0	0	512	491	0	492	39	22	
14	0	0	0	0	511	498	0	485	39	23	
15	0	0	0	0	505	503	0	495	39	25	
0	0	0	0	0	506	503	0	502	39	27	
1	0	0	0	0	503	497	0	494	39	29	
2	0	0	0	0	509	491	0	482	39	29	
3	0	0	0	0	508	485	0	473	39	28	
4	0	0	0	0	506	491	0	463	39	25	
5	0	0	0	0	509	496	0	456	39	22	
6	0	0	0	0	510	498	0	452	39	22	
7	0	0	0	0	513	498	0	451	39	24	
8	0	0	0	0	511	495	0	450	39	27	
9	0	0	0	0	508	486	0	447	39	28	
10	0	0	0	0	507	478	0	447	39	29	
11	0	0	0	0	503	476	0	454	39	28	
12	0	0	0	0	509	486	0	484	39	26	
13	0	0	0	0	511	496	0	494	39	23	
14	0	0	0	0	516	501	0	488	39	22	
15	0	0	0	0	507	498	0	476	39	24	
0	0	0	0	0	511	497	0	463	39	26	
1	0	0	0	0	504	499	0	452	39	28	
2	0	0	0	0	504	500	0	447	39	29	
3	0	0	0	0	506	501	0	446	39	29	
4	0	0	0	0	504	503	0	445	39	27	
5	0	0	0	0	508	503	0	455	39	24	
6	0	0	0	0	513	509	0	445	39	22	
7	0	0	0	0	508	513	0	441	39	23	
8	0	0	0	0	514	512	0	438	39	25	
9	0	0	0	0	503	511	0	436	39	27	
10	0	0	0	0	509	508	0	445	39	29	
11	0	0	0	0	511	508	0	473	39	29	
12	0	0	0	0	504	504	0	485	39	28	
13	0	0	0	0	513	499	0	503	39	25	
14	0	0	0	0	509	503	0	521	39	22	
15	0	0	0	0	506	504	0	525	39	22	
0	0	0	0	0	507	512	0	537	39	24	
1	0	0	0	0	504	517	0	530	39	27	
2	0	0	0	0	510	515	0	514	39	29	
3	0	0	0	0	510	510	0	496	39	29	
4	0	0	0	0	505	505	0	484	39	28	
5	0	0	0	0	506	503	0	476	39	26	
6	0	0	0	0	515	506	0	470	39	23	
7	0	0	0	0	506	510	0	472	39	22	
8	0	0	0	0	510	512	0	473	39	24	
9	0	0	0	0	506	514	0	491	39	26	
10	0	0	0	0	507	513	0	493	39	28	
11	0	0	0	0	506	510	0	489	39	29	
12	0	0	0	0	516	509	0	492	39	29	
13	0	0	0	0	508	503	0	489	39	27	
14	0	0	0	0	511	498	0	483	39	24	
15	0	0	0	0	505	502	0	479	39	22	
0	0	0	0	0	511	509	0	472	39	23	
1	0	0	0	0	512	513	0	467	39	25	
2	0	0	0	0	508	512	0	475	39	27	
3	0	0	0	0	509	503	0	496	39	29	
4	0	0	0	0	502	501	0	499	39	29	
5	0	0	0	0	511	505	0	492	39	28	
6	0	0	0	0	505	502	0	483	39	25	
7	0	0	0	0	512	502	0	476	39	22	
8	0	0	0	0	507	510	0	478	39	22	
9	0	0	0	0	502	508	0	497	39	25	
10	0	0	0	0	504	506	0	503	39	27	
11	0	0	0	0	513	504	0	498	39	29	
12	0	0	0	0	511	504	0	490	39	29	
13	0	0	0	0	505	508	0	483	39	28	
14	0	0	0	0	505	513	0	476	39	26	
15	0	0	0	0	509	520	0	473	39	23	
0	0	0	0	0	506	528	0	470	39	22	
1	0	0	0	0	508	527	0	480	39	24	
2	0	0	0	0	510	519	0	503	39	26	
3	0	0	0	0	510	519	0	508	39	28	
4	0	0	0	0	508	513	0	504	39	29	
5	0	0	0	0	510	505	0	494	39	29	
6	0	0	0	0	508	504	0	484	39	27	
7	0	0	0	0	512	503	0	486	39	24	
8	0	0	0	0	505	498	0	502	39	22	
9	0	0	0	0	508	500	0	507	39	23	
10	0	0	0	0	507	498	0	501	39	25	
11	0	0	0	0	506	495	0	502	39	28	
12	0	0	0	0	505	488	0	502	39	29	
13	0	0	0	0	508	487	0	494	39	29	
14	0	0	0	0	512	497	0	486	39	28	
15	0	0	0	0	513	503	0	479	39	25	
0	0	0	0	0	509	502	0	474	39	22	
1	0	0	0	0	504	500	0	478	39	22	
2	0	0	0	0	501	499	0	500	39	25	
3	0	0	0	0	505	496	0	518	39	27	
4	0	0	0	0	510	498	0	502	39	29	
5	0	0	0	0	507	504	0	490	39	30	
6	0	0	0	0	508	510	0	484	39	28	
7	0	0	0	0	515	509	0	480	39	26	
8	0	0	0	0	510	505	0	476	39	23	
9	0	0	0	0	508	505	0	490	39	22	
10	0	0	0	0	504	505	0	516	39	24	
11	0	0	0	0	511	504	0	515	39	26	
12	0	0	0	0	508	505	0	510	39	28	
13	0	0	0	0	511	506	0	501	39	29	
14	0	0	0	0	507	503	0	495	39	29	
15	0	0	0	0	503	505	0	500	39	27	
0	0	0	0	0	507	507	0	515	39	24	
1	0	0	0	0	513	516	0	516	39	22	
2	0	0	0	0	508	526	0	510	39	23	
3	0	0	0	0	507	527	0	505	39	25	
4	0	0	0	0	512	524	0	500	39	28	
5	0	0	0	0	507	521	0	496	39	29	
6	0	0	0	0	507	515	0	494	39	29	
7	0	0	0	0	509	512	0	494	39	28	
8	0	0	0	0	509	509	0	493	39	25	
9	0	0	0	0	508	506	0	504	39	22	
10	0	0	0	0	507	500	0	527	39	22	
11	0	0	0	0	506	503	0	533	39	25	
12	0	0	0	0	507	509	0	529	39	27	
13	0	0	0	0	504	511	0	528	39	29	
14	0	0	0	0	511	511	0	522	39	30	
15	0	0	0	0	508	514	0	518	39	28	
0	0	0	0	0	508	513	0	535	39	26	
1	0	0	0	0	511	513	0	538	39	23	
2	0	0	0	0	511	510	0	527	39	22	
3	0	0	0	0	512	509	0	515	39	24	
4	0	0	0	0	503	505	0	503	39	26	
5	0	0	0	0	505	501	0	495	39	28	
6	0	0	0	0	503	504	0	491	39	29	
7	0	0	0	0	503	504	0	504	39	29	
8	0	0	0	0	508	504	0	517	39	27	
9	0	0	0	0	509	505	0	514	39	24	
10	0	0	0	0	504	508	0	510	39	22	
11	0	0	0	0	512	507	0	502	39	23	
12	0	0	0	0	509	507	0	496	39	25	
13	0	0	0	0	508	505	0	493	39	28	
14	0	0	0	0	499	506	0	492	39	29	
15	0	0	0	0	508	512	0	488	39	29	
0	0	0	0	0	516	514	0	488	39	28	
1	0	0	0	0	507	512	0	505	39	25	
2	0	0	0	0	506	513	0	529	39	22	
3	0	0	0	0	509	515	0	534	39	22	
4	0	0	0	0	509	514	0	527	39	25	
5	0	0	0	0	514	514	0	517	39	27	
6	0	0	0	0	510	519	0	508	39	29	
7	0	0	0	0	504	526	0	512	39	29	
8	0	0	0	0	505	527	0	524	39	28	
9	0	0	0	0	505	518	0	521	39	26	
10	0	0	0	0	508	517	0	516	39	23	
11	0	0	0	0	511	520	0	520	39	22	
12	0	0	0	0	514	513	0	517	39	24	
13	0	0	0	0	505	507	0	513	39	26	
14	0	0	0	0	503	504	0	508	39	28	
15	0	0	0	0	507	508	0	503	39	29	
0	0	0	0	0	512	515	0	499	39	29	
1	0	0	0	0	508	522	0	497	39	27	
2	0	0	0	0	507	526	0	494	39	24	
3	0	0	0	0	503	532	0	492	39	22	
4	0	0	0	0	499	535	0	488	39	23	
5	0	0	0	0	505	517	0	486	39	25	
6	0	0	0	0	510	497	0	484	39	28	
7	0	0	0	0	516	499	0	483	39	29	
8	0	0	0	0	507	499	0	480	39	29	
9	0	0	0	0	508	500	0	476	39	27	
10	0	0	0	0	512	506	0	473	39	25	
11	0	0	0	0	512	509	0	472	39	22	
12	0	0	0	0	508	509	0	474	39	22	
13	0	0	0	0	510	500	0	477	39	25	
14	0	0	0	0	507	496	0	501	39	27	
15	0	0	0	0	504	502	0	516	39	29	
0	0	0	0	0	510	512	0	526	39	29	
1	0	0	0	0	508	514	0	543	39	28	
2	0	0	0	0	512	504	0	545	39	26	
3	0	0	0	0	506	494	0	556	39	23	
4	0	0	0	0	507	491	0	559	39	22	
5	0	0	0	0	509	490	0	558	39	24	
6	0	0	0	0	507	495	0	566	39	26	
7	0	0	0	0	506	508	0	554	39	28	
8	0	0	0	0	504	513	0	555	39	29	
9	0	0	0	0	508	512	0	551	39	29	
10	0	0	0	0	515	512	0	536	39	27	
11	0	0	0	0	508	516	0	527	39	24	
12	0	0	0	0	503	521	0	521	39	22	
13	0	0	0	0	509	527	0	515	39	23	
14	0	0	0	0	507	527	0	501	39	26	
15	0	0	0	0	499	524	0	492	39	28	
0	0	0	0	0	508	519	0	488	39	29	
1	0	0	0	0	510	522	0	487	39	29	
2	0	0	0	0	510	525	0	506	39	27	
3	0	0	0	0	512	519	0	521	39	24	
4	0	0	0	0	505	516	0	518	39	22	
5	0	0	0	0	512	509	0	514	39	22	
6	0	0	0	0	511	514	0	503	39	25	
7	0	0	0	0	512	524	0	495	39	27	
8	0	0	0	0	508	530	0	489	39	29	
9	0	0	0	0	505	524	0	496	39	29	
10	0	0	0	0	507	516	0	517	39	28	
11	0	0	0	0	508	515	0	520	39	25	
12	0	0	0	0	506	516	0	514	39	23	
13	0	0	0	0	508	518	0	500	39	22	
14	0	0	0	0	513	519	0	492	39	24	
15	0	0	0	0	504	519	0	491	39	26	
0	0	0	0	0	505	525	0	505	39	28	
1	0	0	0	0	508	531	0	509	39	29	
2	0	0	0	0	507	530	0	502	39	29	
3	0	0	0	0	508	526	0	496	39	26	
4	0	0	0	0	502	526	0	488	39	23	
5	0	0	0	0	510	527	0	481	39	22	
6	0	0	0	0	510	530	0	477	39	23	
7	0	0	0	0	510	534	0	472	39	26	
8	0	0	0	0	507	538	0	479	39	28	
9	0	0	0	0	505	540	0	493	39	29	
10	0	0	0	0	508	546	0	496	39	29	
11	0	0	0	0	511	551	0	490	39	27	
12	0	0	0	0	505	551	0	482	39	24	
13	0	0	0	0	513	544	0	485	39	22	
14	0	0	0	0	507	528	0	483	39	22	
15	0	0	0	0	510	513	0	482	39	25	
0	0	0	0	0	506	513	0	499	39	27	
1	0	0	0	0	513	523	0	509	39	29	
2	0	0	0	0	508	524	0	504	39	29	
3	0	0	0	0	510	518	0	494	39	28	
4	0	0	0	0	507	514	0	485	39	25	
5	0	0	0	0	512	513	0	475	39	23	
6	0	0	0	0	506	517	0	468	39	22	
7	0	0	0	0	504	524	0	463	39	24	
8	0	0	0	0	512	526	0	461	39	26	
9	0	0	0	0	502	528	0	461	39	28	
10	0	0	0	0	504	523	0	481	39	29	
11	0	0	0	0	511	518	0	493	39	29	
12	0	0	0	0	507	516	0	491	39	26	
13	0	0	0	0	509	514	0	481	39	23	
14	0	0	0	0	505	511	0	472	39	22	
15	0	0	0	0	519	513	0	463	39	23	
0	0	0	0	0	503	513	0	475	39	26	
1	0	0	0	0	508	511	0	490	39	28	
2	0	0	0	0	508	509	0	487	39	29	
3	0	0	0	0	506	508	0	480	39	29	
4	0	0	0	0	511	510	0	473	39	27	
5	0	0	0	0	512	510	0	464	39	24	
6	0	0	0	0	504	512	0	458	39	22	
7	0	0	0	0	501	504	0	455	39	22	
8	0	0	0	0	510	485	0	472	39	25	
9	0	0	0	0	503	482	0	475	39	27	
10	0	0	0	0	512	485	0	491	39	29	
11	0	0	0	0	509	487	0	491	39	29	
12	0	0	0	0	511	490	0	487	39	28	
13	0	0	0	0	504	496	0	484	39	25	
14	0	0	0	0	506	494	0	493	39	23	
15	0	0	0	0	510	489	0	498	39	22	
0	0	0	0	0	505	491	0	507	39	24	
1	0	0	0	0	509	487	0	524	39	26	
2	0	0	0	0	514	488	0	522	39	28	
3	0	0	0	0	510	497	0	512	39	29	
4	0	0	0	0	507	499	0	498	39	29	
5	0	0	0	0	511	495	0	489	39	26	
6	0	0	0	0	509	488	0	480	39	23	
7	0	0	0	0	510	488	0	477	39	22	
8	0	0	0	0	500	492	0	473	39	23	
9	0	0	0	0	512	491	0	487	39	26	
10	0	0	0	0	510	495	0	519	39	28	
11	0	0	0	0	513	502	0	508	39	29	
12	0	0	0	0	507	507	0	503	39	29	
13	0	0	0	0	505	507	0	496	39	27	
14	0	0	0	0	506	505	0	491	39	24	
15	0	0	0	0	505	504	0	496	39	22	
0	0	0	0	0	503	504	0	513	39	23	
1	0	0	0	0	508	504	0	515	39	25	
2	0	0	0	0	512	502	0	508	39	27	
3	0	0	0	0	506	495	0	502	39	29	
4	0	0	0	0	511	494	0	505	39	29	
5	0	0	0	0	509	501	0	509	39	28	
6	0	0	0	0	508	502	0	506	39	25	
7	0	0	0	0	511	502	0	502	39	23	
8	0	0	0	0	513	507	0	498	39	22	
9	0	0	0	0	504	510	0	494	39	24	
10	0	0	0	0	505	512	0	494	39	26	
11	0	0	0	0	505	511	0	496	39	28	
12	0	0	0	0	508	510	0	518	39	29	
13	0	0	0	0	510	507	0	532	39	29	
14	0	0	0	0	505	504	0	551	39	26	
15	0	0	0	0	510	501	0	561	39	23	
0	0	0	0	0	510	502	0	557	39	22	
1	0	0	0	0	509	502	0	552	39	23	
2	0	0	0	0	504	494	0	540	39	26	
3	0	0	0	0	504	490	0	528	39	28	
4	0	0	0	0	509	487	0	517	39	29	
5	0	0	0	0	508	491	0	508	39	29	
6	0	0	0	0	508	499	0	503	39	27	
7	0	0	0	0	517	518	0	497	39	24	
8	0	0	0	0	508	524	0	497	39	22	
9	0	0	0	0	505	528	0	497	39	23	
10	0	0	0	0	512	539	0	498	39	25	
11	0	0	0	0	511	552	0	498	39	27	
12	0	0	0	0	507	564	0	514	39	29	
13	0	0	0	0	507	577	0	534	39	29	
14	0	0	0	0	509	594	0	560	39	28	
15	0	0	0	0	510	610	0	560	39	25	
0	0	0	0	0	510	624	0	557	39	23	
1	0	0	0	0	508	638	0	562	39	22	
2	0	0	0	0	517	655	0	567	39	24	
3	0	0	0	0	508	672	0	564	39	26	
4	0	0	0	0	497	681	0	574	39	28	
5	0	0	0	0	502	696	0	571	39	29	
6	0	0	0	0	504	710	0	574	39	29	
7	0	0	0	0	512	721	0	572	39	26	
8	0	0	0	0	518	738	0	555	39	23	
9	0	0	0	0	509	759	0	541	39	22	
10	0	0	0	0	510	772	0	536	39	23	
11	0	0	0	0	507	786	0	527	39	26	
12	0	0	0	0	503	798	0	518	39	28	
13	0	0	0	0	508	799	0	511	39	29	
14	0	0	0	0	504	798	0	504	39	29	
15	0	0	0	0	512	801	0	499	39	27	
0	0	0	0	0	515	810	0	498	39	24	
1	0	0	0	0	506	813	0	495	39	22	
2	0	0	0	0	508	799	0	495	39	23	
3	0	0	0	0	512	778	0	497	39	25	
4	0	0	0	0	511	751	0	519	39	27	
5	0	0	0	0	506	731	0	534	39	29	
6	0	0	0	0	508	714	0	534	39	29	
7	0	0	0	0	508	694	0	532	39	28	
8	0	0	0	0	505	671	0	544	39	25	
9	0	0	0	0	512	652	0	546	39	23	
10	0	0	0	0	505	629	0	536	39	22	
11	0	0	0	0	508	603	0	525	39	24	
12	0	0	0	0	504	576	0	516	39	27	
13	0	0	0	0	512	548	0	505	39	28	
14	0	0	0	0	509	518	0	499	39	29	
15	0	0	0	0	504	492	0	496	39	29	
0	0	0	0	0	502	467	0	505	39	26	
1	0	0	0	0	508	451	0	522	39	23	
2	0	0	0	0	507	443	0	527	39	22	
3	0	0	0	0	507	436	0	545	39	23	
4	0	0	0	0	518	424	0	552	39	26	
5	0	0	0	0	510	414	0	555	39	28	
6	0	0	0	0	512	407	0	565	39	29	
7	0	0	0	0	511	401	0	557	39	29	
8	0	0	0	0	511	396	0	563	39	27	
9	0	0	0	0	504	399	0	562	39	24	
10	0	0	0	0	504	402	0	548	39	22	
11	0	0	0	0	508	403	0	531	39	23	
12	0	0	0	0	507	405	0	519	39	25	
13	0	0	0	0	506	403	0	519	39	27	
14	0	0	0	0	504	402	0	512	39	29	
15	0	0	0	0	508	405	0	519	39	29	
0	0	0	0	0	508	408	0	537	39	28	
1	0	0	0	0	508	406	0	539	39	25	
2	0	0	0	0	510	402	0	532	39	23	
3	0	0	0	0	513	403	0	521	39	22	
4	0	0	0	0	506	405	0	512	39	24	
5	0	0	0	0	505	409	0	503	39	27	
6	0	0	0	0	507	412	0	494	39	28	
7	0	0	0	0	510	415	0	489	39	29	
8	0	0	0	0	503	415	0	484	39	29	
9	0	0	0	0	511	421	0	481	39	26	
10	0	0	0	0	512	435	0	480	39	23	
11	0	0	0	0	514	442	0	482	39	22	
12	0	0	0	0	503	440	0	480	39	23	
13	0	0	0	0	505	440	0	480	39	26	
14	0	0	0	0	500	444	0	480	39	28	
15	0	0	0	0	510	443	0	478	39	29	
0	0	0	0	0	508	437	0	475	39	29	
1	0	0	0	0	504	440	0	470	39	27	
2	0	0	0	0	512	448	0	469	39	24	
3	0	0	0	0	511	451	0	484	39	22	
4	0	0	0	0	511	453	0	510	39	23	
5	0	0	0	0	511	450	0	521	39	25	
6	0	0	0	0	508	444	0	541	39	27	
7	0	0	0	0	506	440	0	547	39	29	
8	0	0	0	0	511	444	0	561	39	29	
9	0	0	0	0	508	442	0	559	39	28	
10	0	0	0	0	503	442	0	552	39	25	
11	0	0	0	0	502	449	0	540	39	23	
12	0	0	0	0	513	457	0	536	39	22	
13	0	0	0	0	507	459	0	528	39	24	
14	0	0	0	0	519	455	0	519	39	27	
15	0	0	0	0	509	458	0	511	39	28	
0	0	0	0	0	508	467	0	501	39	29	
1	0	0	0	0	505	468	0	513	39	29	
2	0	0	0	0	508	452	0	530	39	26	
3	0	0	0	0	512	433	0	530	39	23	
4	0	0	0	0	504	435	0	522	39	22	
5	0	0	0	0	501	446	0	515	39	23	
6	0	0	0	0	508	455	0	501	39	26	
7	0	0	0	0	509	462	0	492	39	28	
8	0	0	0	0	508	467	0	488	39	29	
9	0	0	0	0	508	469	0	487	39	29	
10	0	0	0	0	507	464	0	509	39	27	
11	0	0	0	0	511	460	0	524	39	24	
12	0	0	0	0	512	456	0	523	39	22	
13	0	0	0	0	506	462	0	519	39	23	
14	0	0	0	0	507	468	0	507	39	25	
15	0	0	0	0	508	472	0	500	39	27	
0	0	0	0	0	509	478	0	510	39	29	
1	0	0	0	0	512	479	0	523	39	29	
2	0	0	0	0	508	480	0	522	39	28	
3	0	0	0	0	510	485	0	517	39	25	
4	0	0	0	0	507	496	0	506	39	22	
5	0	0	0	0	508	505	0	497	39	22	
6	0	0	0	0	504	494	0	492	39	24	
7	0	0	0	0	496	475	0	487	39	27	
8	0	0	0	0	508	471	0	485	39	28	
9	0	0	0	0	507	471	0	520	39	29	
10	0	0	0	0	518	472	0	520	39	29	
11	0	0	0	0	507	472	0	517	39	26	
12	0	0	0	0	512	473	0	516	39	23	
13	0	0	0	0	511	475	0	518	39	22	
14	0	0	0	0	508	478	0	512	39	23	
15	0	0	0	0	511	480	0	519	39	26	
0	0	0	0	0	504	479	0	531	39	28	
1	0	0	0	0	508	478	0	528	39	29	
2	0	0	0	0	512	476	0	518	39	29	
3	0	0	0	0	516	479	0	506	39	27	
4	0	0	0	0	506	485	0	495	39	24	
5	0	0	0	0	507	491	0	487	39	22	
6	0	0	0	0	512	494	0	483	39	23	
7	0	0	0	0	505	493	0	479	39	25	
8	0	0	0	0	505	492	0	478	39	27	
9	0	0	0	0	509	489	0	493	39	29	
10	0	0	0	0	508	486	0	515	39	29	
11	0	0	0	0	514	485	0	516	39	28	
12	0	0	0	0	510	489	0	510	39	25	
13	0	0	0	0	509	490	0	501	39	22	
14	0	0	0	0	512	486	0	492	39	22	
15	0	0	0	0	505	487	0	496	39	24	
0	0	0	0	0	506	491	0	508	39	27	
1	0	0	0	0	507	496	0	504	39	28	
2	0	0	0	0	504	497	0	494	39	29	
3	0	0	0	0	513	500	0	485	39	29	
4	0	0	0	0	510	503	0	480	39	26	
5	0	0	0	0	507	498	0	477	39	23	
6	0	0	0	0	503	499	0	475	39	22	
7	0	0	0	0	505	502	0	472	39	23	
8	0	0	0	0	510	504	0	475	39	26	
9	0	0	0	0	509	500	0	481	39	28	
10	0	0	0	0	502	497	0	504	39	29	
11	0	0	0	0	517	497	0	509	39	29	
12	0	0	0	0	512	502	0	504	39	27	
13	0	0	0	0	510	506	0	508	39	24	
14	0	0	0	0	502	504	0	504	39	22	
15	0	0	0	0	507	503	0	505	39	23	
0	0	0	0	0	516	501	0	521	39	25	
1	0	0	0	0	512	500	0	526	39	27	
2	0	0	0	0	512	502	0	517	39	29	
3	0	0	0	0	510	505	0	505	39	29	
4	0	0	0	0	506	502	0	494	39	28	
5	0	0	0	0	507	491	0	484	39	25	
6	0	0	0	0	508	486	0	477	39	22	
7	0	0	0	0	510	481	0	472	39	22	
8	0	0	0	0	511	483	0	479	39	24	
9	0	0	0	0	512	487	0	496	39	27	
10	0	0	0	0	509	492	0	501	39	28	
11	0	0	0	0	515	497	0	498	39	29	
12	0	0	0	0	507	497	0	491	39	29	
13	0	0	0	0	506	501	0	504	39	26	
14	0	0	0	0	508	510	0	483	39	23	
15	0	0	0	0	502	522	0	479	39	22	
0	0	0	0	0	508	524	0	476	39	24	
1	0	0	0	0	508	517	0	490	39	26	
2	0	0	0	0	505	515	0	507	39	28	
3	0	0	0	0	502	521	0	508	39	29	
4	0	0	0	0	519	526	0	503	39	29	
5	0	0	0	0	512	527	0	492	39	27	
6	0	0	0	0	502	528	0	485	39	24	
7	0	0	0	0	509	529	0	490	39	22	
8	0	0	0	0	505	524	0	505	39	23	
9	0	0	0	0	510	525	0	507	39	25	
10	0	0	0	0	511	530	0	501	39	27	
11	0	0	0	0	504	531	0	505	39	29	
12	0	0	0	0	504	530	0	504	39	29	
13	0	0	0	0	510	530	0	498	39	28	
14	0	0	0	0	510	532	0	493	39	25	
15	0	0	0	0	504	526	0	489	39	22	
0	0	0	0	0	512	519	0	481	39	22	
1	0	0	0	0	510	514	0	479	39	24	
2	0	0	0	0	513	511	0	486	39	27	
3	0	0	0	0	505	520	0	511	39	29	
4	0	0	0	0	498	531	0	520	39	30	
5	0	0	0	0	511	535	0	518	39	28	
6	0	0	0	0	508	539	0	509	39	26	
7	0	0	0	0	509	539	0	503	39	23	
8	0	0	0	0	511	536	0	496	39	22	
9	0	0	0	0	503	525	0	512	39	24	
10	0	0	0	0	507	519	0	526	39	26	
11	0	0	0	0	505	513	0	522	39	28	
12	0	0	0	0	513	510	0	515	39	29	
13	0	0	0	0	512	511	0	507	39	29	
14	0	0	0	0	510	519	0	498	39	27	
15	0	0	0	0	506	525	0	493	39	24	
0	0	0	0	0	508	528	0	500	39	22	
1	0	0	0	0	510	532	0	516	39	23	
2	0	0	0	0	506	532	0	529	39	25	
3	0	0	0	0	502	535	0	515	39	27	
4	0	0	0	0	504	541	0	508	39	29	
5	0	0	0	0	507	545	0	503	39	29	
6	0	0	0	0	508	545	0	500	39	28	
7	0	0	0	0	504	545	0	496	39	25	
8	0	0	0	0	514	545	0	495	39	22	
9	0	0	0	0	504	544	0	509	39	22	
10	0	0	0	0	510	541	0	526	39	24	
11	0	0	0	0	507	541	0	529	39	27	
12	0	0	0	0	507	547	0	525	39	29	
13	0	0	0	0	509	554	0	526	39	30	
14	0	0	0	0	511	560	0	520	39	28	
15	0	0	0	0	509	563	0	523	39	26	
0	0	0	0	0	500	563	0	537	39	23	
1	0	0	0	0	511	562	0	536	39	22	
2	0	0	0	0	512	558	0	526	39	24	
3	0	0	0	0	507	556	0	513	39	26	
4	0	0	0	0	511	560	0	502	39	28	
5	0	0	0	0	509	563	0	494	39	29	
6	0	0	0	0	505	560	0	489	39	29	
7	0	0	0	0	504	554	0	487	39	27	
8	0	0	0	0	506	552	0	483	39	24	
9	0	0	0	0	511	557	0	493	39	22	
10	0	0	0	0	510	568	0	517	39	23	
11	0	0	0	0	507	577	0	523	39	25	
12	0	0	0	0	510	585	0	517	39	27	
13	0	0	0	0	510	582	0	521	39	29	
14	0	0	0	0	509	561	0	500	39	29	
15	0	0	0	0	510	546	0	502	39	28	
0	0	0	0	0	504	544	0	519	39	25	
1	0	0	0	0	498	549	0	524	39	22	
2	0	0	0	0	506	555	0	518	39	22	
3	0	0	0	0	505	561	0	510	39	24	
4	0	0	0	0	509	567	0	502	39	27	
5	0	0	0	0	511	558	0	497	39	29	
6	0	0	0	0	511	547	0	493	39	30	
7	0	0	0	0	509	551	0	491	39	28	
8	0	0	0	0	508	564	0	501	39	26	
9	0	0	0	0	504	575	0	521	39	23	
10	0	0	0	0	511	569	0	524	39	22	
11	0	0	0	0	509	558	0	519	39	24	
12	0	0	0	0	507	557	0	510	39	26	
13	0	0	0	0	511	555	0	501	39	28	
14	0	0	0	0	506	554	0	494	39	29	
15	0	0	0	0	512	556	0	487	39	29	
0	0	0	0	0	512	558	0	480	39	27	
1	0	0	0	0	508	559	0	476	39	24	
2	0	0	0	0	505	562	0	475	39	22	
3	0	0	0	0	506	560	0	480	39	23	
4	0	0	0	0	506	556	0	480	39	25	
5	0	0	0	0	509	557	0	480	39	28	
6	0	0	0	0	506	553	0	482	39	29	
7	0	0	0	0	508	553	0	482	39	29	
8	0	0	0	0	510	548	0	479	39	28	
9	0	0	0	0	508	542	0	476	39	25	
10	0	0	0	0	509	537	0	475	39	22	
11	0	0	0	0	507	533	0	476	39	22	
12	0	0	0	0	507	534	0	478	39	25	
13	0	0	0	0	499	534	0	481	39	27	
14	0	0	0	0	511	535	0	481	39	29	
15	0	0	0	0	512	536	0	481	39	30	
0	0	0	0	0	508	534	0	479	39	28	
1	0	0	0	0	508	527	0	478	39	26	
2	0	0	0	0	509	519	0	479	39	23	
3	0	0	0	0	507	508	0	491	39	22	
4	0	0	0	0	503	503	0	513	39	24	
5	0	0	0	0	509	501	0	529	39	26	
6	0	0	0	0	507	503	0	530	39	28	
7	0	0	0	0	508	497	0	525	39	29	
8	0	0	0	0	507	492	0	518	39	29	
9	0	0	0	0	510	497	0	507	39	27	
10	0	0	0	0	512	500	0	499	39	24	
11	0	0	0	0	512	492	0	496	39	22	
12	0	0	0	0	512	479	0	503	39	23	
13	0	0	0	0	501	468	0	526	39	25	
14	0	0	0	0	507	466	0	537	39	28	
15	0	0	0	0	505	461	0	551	39	29	
0	0	0	0	0	507	459	0	564	39	29	
1	0	0	0	0	509	457	0	563	39	28	
2	0	0	0	0	504	457	0	574	39	25	
3	0	0	0	0	511	460	0	571	39	22	
4	0	0	0	0	509	462	0	574	39	22	
5	0	0	0	0	507	462	0	575	39	25	
6	0	0	0	0	510	460	0	572	39	27	
7	0	0	0	0	505	463	0	581	39	29	
8	0	0	0	0	512	466	0	577	39	30	
9	0	0	0	0	502	460	0	560	39	28	
10	0	0	0	0	504	455	0	543	39	26	
11	0	0	0	0	508	455	0	529	39	23	
12	0	0	0	0	509	456	0	515	39	22	
13	0	0	0	0	506	460	0	508	39	24	
14	0	0	0	0	508	462	0	502	39	26	
15	0	0	0	0	504	464	0	499	39	28	
0	0	0	0	0	508	461	0	504	39	29	
1	0	0	0	0	508	455	0	540	39	29	
2	0	0	0	0	510	455	0	529	39	27	
3	0	0	0	0	516	461	0	526	39	24	
4	0	0	0	0	505	458	0	519	39	22	
5	0	0	0	0	514	456	0	512	39	23	
6	0	0	0	0	512	452	0	504	39	25	
7	0	0	0	0	515	444	0	497	39	28	
8	0	0	0	0	506	444	0	489	39	29	
9	0	0	0	0	504	446	0	483	39	29	
10	0	0	0	0	506	445	0	484	39	28	
11	0	0	0	0	511	445	0	483	39	25	
12	0	0	0	0	511	451	0	482	39	22	
13	0	0	0	0	508	460	0	483	39	22	
14	0	0	0	0	505	467	0	484	39	25	
15	0	0	0	0	508	471	0	484	39	27	
0	0	0	0	0	508	473	0	480	39	29	
1	0	0	0	0	508	474	0	479	39	30	
2	0	0	0	0	505	473	0	499	39	28	
3	0	0	0	0	503	465	0	540	39	26	
4	0	0	0	0	505	456	0	534	39	23	
5	0	0	0	0	506	447	0	555	39	22	
6	0	0	0	0	507	445	0	561	39	24	
7	0	0	0	0	501	451	0	569	39	26	
8	0	0	0	0	511	456	0	574	39	28	
9	0	0	0	0	509	460	0	563	39	29	
10	0	0	0	0	507	460	0	546	39	29	
11	0	0	0	0	510	461	0	543	39	27	
12	0	0	0	0	510	467	0	516	39	24	
13	0	0	0	0	511	464	0	504	39	22	
14	0	0	0	0	508	456	0	499	39	23	
15	0	0	0	0	503	452	0	496	39	25	
0	0	0	0	0	508	448	0	494	39	28	
1	0	0	0	0	512	441	0	510	39	29	
2	0	0	0	0	508	442	0	535	39	29	
3	0	0	0	0	506	448	0	537	39	28	
4	0	0	0	0	504	456	0	531	39	25	
5	0	0	0	0	501	458	0	521	39	22	
6	0	0	0	0	511	457	0	509	39	22	
7	0	0	0	0	509	460	0	512	39	25	
8	0	0	0	0	508	464	0	524	39	27	
9	0	0	0	0	511	471	0	519	39	29	
10	0	0	0	0	509	472	0	512	39	30	
11	0	0	0	0	508	467	0	515	39	28	
12	0	0	0	0	513	467	0	512	39	26	
13	0	0	0	0	509	466	0	508	39	23	
14	0	0	0	0	512	467	0	503	39	22	
15	0	0	0	0	505	470	0	496	39	24	
0	0	0	0	0	507	470	0	492	39	26	
1	0	0	0	0	510	467	0	488	39	28	
2	0	0	0	0	510	466	0	493	39	29	
3	0	0	0	0	513	465	0	518	39	29	
4	0	0	0	0	511	467	0	542	39	27	
5	0	0	0	0	507	472	0	523	39	24	
6	0	0	0	0	504	475	0	527	39	22	
7	0	0	0	0	506	480	0	542	39	23	
8	0	0	0	0	508	485	0	541	39	26	
9	0	0	0	0	509	485	0	552	39	28	
10	0	0	0	0	509	480	0	568	39	29	
11	0	0	0	0	504	476	0	548	39	29	
12	0	0	0	0	508	473	0	533	39	28	
13	0	0	0	0	514	468	0	521	39	25	
14	0	0	0	0	509	461	0	510	39	22	
15	0	0	0	0	506	467	0	500	39	22	
0	0	0	0	0	513	481	0	507	39	25	
1	0	0	0	0	506	487	0	521	39	27	
2	0	0	0	0	511	487	0	541	39	29	
3	0	0	0	0	517	481	0	519	39	30	
4	0	0	0	0	505	472	0	510	39	28	
5	0	0	0	0	506	464	0	504	39	26	
6	0	0	0	0	503	467	0	499	39	23	
7	0	0	0	0	506	472	0	496	39	22	
8	0	0	0	0	508	475	0	492	39	24	
9	0	0	0	0	508	482	0	506	39	26	
10	0	0	0	0	515	487	0	525	39	28	
11	0	0	0	0	513	489	0	528	39	29	
12	0	0	0	0	511	487	0	525	39	29	
13	0	0	0	0	508	483	0	529	39	27	
14	0	0	0	0	509	475	0	521	39	24	
15	0	0	0	0	507	467	0	524	39	22	
0	0	0	0	0	506	467	0	546	39	23	
1	0	0	0	0	511	472	0	539	39	26	
2	0	0	0	0	507	477	0	527	39	28	
3	0	0	0	0	506	475	0	513	39	29	
4	0	0	0	0	499	468	0	503	39	29	
5	0	0	0	0	505	469	0	495	39	28	
6	0	0	0	0	506	481	0	491	39	25	
7	0	0	0	0	504	489	0	486	39	22	
8	0	0	0	0	498	487	0	484	39	22	
9	0	0	0	0	505	488	0	491	39	25	
10	0	0	0	0	515	493	0	513	39	27	
11	0	0	0	0	513	497	0	519	39	29	
12	0	0	0	0	513	497	0	515	39	30	
13	0	0	0	0	506	496	0	505	39	28	
14	0	0	0	0	508	491	0	497	39	26	
15	0	0	0	0	510	491	0	497	39	23	
0	0	0	0	0	513	491	0	513	39	22	
1	0	0	0	0	508	486	0	519	39	24	
2	0	0	0	0	503	484	0	513	39	26	
3	0	0	0	0	508	483	0	504	39	28	
4	0	0	0	0	511	486	0	497	39	29	
5	0	0	0	0	507	484	0	488	39	29	
6	0	0	0	0	510	481	0	483	39	27	
7	0	0	0	0	510	487	0	481	39	24	
8	0	0	0	0	510	483	0	491	39	22	
9	0	0	0	0	503	478	0	508	39	23	
10	0	0	0	0	506	481	0	512	39	26	
11	0	0	0	0	509	483	0	508	39	28	
12	0	0	0	0	507	482	0	512	39	29	
13	0	0	0	0	511	476	0	505	39	29	
14	0	0	0	0	507	476	0	499	39	27	
15	0	0	0	0	513	484	0	493	39	25	
0	0	0	0	0	510	487	0	487	39	22	
1	0	0	0	0	504	486	0	483	39	22	
2	0	0	0	0	513	483	0	493	39	25	
3	0	0	0	0	507	487	0	513	39	27	
4	0	0	0	0	508	492	0	519	39	29	
5	0	0	0	0	508	497	0	514	39	30	
6	0	0	0	0	506	499	0	506	39	28	
7	0	0	0	0	506	504	0	498	39	26	
8	0	0	0	0	510	504	0	498	39	23	
9	0	0	0	0	502	500	0	518	39	22	
10	0	0	0	0	508	503	0	522	39	24	
11	0	0	0	0	509	502	0	517	39	26	
12	0	0	0	0	508	496	0	508	39	28	
13	0	0	0	0	504	496	0	499	39	29	
14	0	0	0	0	510	495	0	492	39	29	
15	0	0	0	0	509	493	0	488	39	27	
0	0	0	0	0	509	492	0	502	39	24	
1	0	0	0	0	506	494	0	515	39	22	
2	0	0	0	0	511	495	0	518	39	23	
3	0	0	0	0	511	493	0	514	39	26	
4	0	0	0	0	506	496	0	507	39	28	
5	0	0	0	0	507	495	0	500	39	29	
6	0	0	0	0	504	493	0	511	39	29	
7	0	0	0	0	510	493	0	490	39	27	
8	0	0	0	0	515	502	0	490	39	24	
9	0	0	0	0	511	510	0	510	39	22	
10	0	0	0	0	508	512	0	525	39	23	
11	0	0	0	0	507	510	0	524	39	25	
12	0	0	0	0	507	510	0	523	39	27	
13	0	0	0	0	503	513	0	522	39	29	
14	0	0	0	0	505	515	0	516	39	30	
15	0	0	0	0	512	519	0	523	39	28	
0	0	0	0	0	511	524	0	533	39	25	
1	0	0	0	0	506	524	0	529	39	23	
2	0	0	0	0	508	515	0	520	39	22	
3	0	0	0	0	498	504	0	510	39	24	
4	0	0	0	0	514	498	0	500	39	26	
5	0	0	0	0	505	496	0	495	39	28	
6	0	0	0	0	511	496	0	492	39	30	
7	0	0	0	0	508	500	0	490	39	29	
8	0	0	0	0	507	502	0	486	39	27	
9	0	0	0	0	505	501	0	503	39	24	
10	0	0	0	0	515	503	0	527	39	22	
11	0	0	0	0	514	501	0	531	39	23	
12	0	0	0	0	505	502	0	526	39	26	
13	0	0	0	0	507	508	0	517	39	28	
14	0	0	0	0	510	505	0	509	39	29	
15	0	0	0	0	505	502	0	511	39	29	
0	0	0	0	0	511	500	0	524	39	27	
1	0	0	0	0	507	497	0	525	39	24	
2	0	0	0	0	499	493	0	540	39	22	
3	0	0	0	0	508	495	0	544	39	23	
4	0	0	0	0	515	497	0	536	39	25	
5	0	0	0	0	511	498	0	525	39	27	
6	0	0	0	0	507	500	0	514	39	29	
7	0	0	0	0	507	499	0	501	39	30	
8	0	0	0	0	510	495	0	509	39	28	
9	0	0	0	0	504	494	0	521	39	25	
10	0	0	0	0	504	496	0	526	39	23	
11	0	0	0	0	508	493	0	544	39	22	
12	0	0	0	0	502	494	0	547	39	24	
13	0	0	0	0	504	497	0	546	39	26	
14	0	0	0	0	508	505	0	536	39	28	
15	0	0	0	0	509	517	0	549	39	30	
0	0	0	0	0	512	524	0	546	39	29	
1	0	0	0	0	516	521	0	534	39	26	
2	0	0	0	0	513	520	0	518	39	23	
3	0	0	0	0	509	507	0	504	39	22	
4	0	0	0	0	508	496	0	495	39	23	
5	0	0	0	0	507	489	0	488	39	26	
6	0	0	0	0	508	488	0	485	39	28	
7	0	0	0	0	507	489	0	482	39	29	
8	0	0	0	0	507	495	0	489	39	29	
9	0	0	0	0	507	502	0	509	39	27	
10	0	0	0	0	513	505	0	515	39	24	
11	0	0	0	0	511	505	0	512	39	22	
12	0	0	0	0	502	506	0	505	39	23	
13	0	0	0	0	507	508	0	499	39	25	
14	0	0	0	0	507	512	0	494	39	27	
15	0	0	0	0	513	513	0	489	39	29	
0	0	0	0	0	504	515	0	488	39	30	
1	0	0	0	0	507	516	0	503	39	28	
2	0	0	0	0	509	515	0	523	39	25	
3	0	0	0	0	505	513	0	526	39	23	
4	0	0	0	0	509	513	0	521	39	22	
5	0	0	0	0	507	515	0	512	39	24	
6	0	0	0	0	507	519	0	506	39	26	
7	0	0	0	0	513	523	0	511	39	28	
8	0	0	0	0	504	521	0	528	39	30	
9	0	0	0	0	511	510	0	528	39	29	
10	0	0	0	0	507	507	0	522	39	26	
11	0	0	0	0	508	518	0	513	39	23	
12	0	0	0	0	503	522	0	515	39	22	
13	0	0	0	0	505	520	0	519	39	23	
14	0	0	0	0	511	519	0	515	39	26	
15	0	0	0	0	503	518	0	510	39	28	
0	0	0	0	0	509	507	0	506	39	29	
1	0	0	0	0	515	502	0	504	39	29	
2	0	0	0	0	512	503	0	509	39	27	
3	0	0	0	0	505	503	0	534	39	24	
4	0	0	0	0	513	503	0	544	39	22	
5	0	0	0	0	514	503	0	541	39	23	
6	0	0	0	0	505	510	0	531	39	25	
7	0	0	0	0	504	510	0	524	39	27	
8	0	0	0	0	508	508	0	518	39	29	
9	0	0	0	0	507	505	0	512	39	30	
10	0	0	0	0	506	506	0	525	39	28	
11	0	0	0	0	517	511	0	553	39	25	
12	0	0	0	0	507	511	0	544	39	23	
13	0	0	0	0	512	516	0	536	39	22	
14	0	0	0	0	508	523	0	547	39	24	
15	0	0	0	0	505	523	0	548	39	27	
0	0	0	0	0	510	521	0	536	39	28	
1	0	0	0	0	508	519	0	524	39	30	
2	0	0	0	0	508	514	0	514	39	29	
3	0	0	0	0	512	508	0	505	39	26	
4	0	0	0	0	505	503	0	497	39	23	
5	0	0	0	0	505	498	0	492	39	22	
6	0	0	0	0	502	496	0	490	39	23	
7	0	0	0	0	508	502	0	491	39	26	
8	0	0	0	0	506	505	0	490	39	28	
9	0	0	0	0	513	505	0	512	39	29	
10	0	0	0	0	503	507	0	529	39	29	
11	0	0	0	0	512	507	0	531	39	27	
12	0	0	0	0	515	505	0	523	39	24	
13	0	0	0	0	510	508	0	511	39	22	
14	0	0	0	0	507	511	0	500	39	23	
15	0	0	0	0	513	516	0	489	39	25	
0	0	0	0	0	501	519	0	480	39	27	
1	0	0	0	0	512	519	0	473	39	29	
2	0	0	0	0	508	515	0	471	39	30	
3	0	0	0	0	502	514	0	470	39	28	
4	0	0	0	0	505	515	0	473	39	25	
5	0	0	0	0	507	517	0	476	39	23	
6	0	0	0	0	518	520	0	478	39	22	
7	0	0	0	0	507	513	0	475	39	24	
8	0	0	0	0	507	500	0	472	39	27	
9	0	0	0	0	508	495	0	469	39	28	
10	0	0	0	0	503	498	0	472	39	30	
11	0	0	0	0	510	500	0	472	39	29	
12	0	0	0	0	508	502	0	474	39	26	
13	0	0	0	0	508	507	0	475	39	23	
14	0	0	0	0	504	517	0	475	39	22	
15	0	0	0	0	506	515	0	475	39	23	
0	0	0	0	0	508	504	0	471	39	26	
1	0	0	0	0	516	496	0	468	39	28	
2	0	0	0	0	511	492	0	488	39	29	
3	0	0	0	0	508	496	0	506	39	29	
4	0	0	0	0	513	502	0	512	39	27	
5	0	0	0	0	508	506	0	508	39	24	
6	0	0	0	0	507	508	0	502	39	22	
7	0	0	0	0	511	506	0	495	39	23	
8	0	0	0	0	508	505	0	504	39	25	
9	0	0	0	0	508	507	0	527	39	27	
10	0	0	0	0	503	507	0	532	39	29	
11	0	0	0	0	505	506	0	550	39	30	
12	0	0	0	0	509	506	0	551	39	28	
13	0	0	0	0	504	509	0	551	39	25	
14	0	0	0	0	500	513	0	559	39	23	
15	0	0	0	0	510	518	0	548	39	22	
0	0	0	0	0	513	523	0	551	39	24	
1	0	0	0	0	512	529	0	544	39	27	
2	0	0	0	0	515	527	0	539	39	28	
3	0	0	0	0	509	522	0	528	39	30	
4	0	0	0	0	505	524	0	514	39	29	
5	0	0	0	0	507	526	0	497	39	26	
6	0	0	0	0	511	519	0	485	39	23	
7	0	0	0	0	508	513	0	478	39	22	
8	0	0	0	0	504	512	0	469	39	23	
9	0	0	0	0	509	512	0	465	39	26	
10	0	0	0	0	511	510	0	461	39	28	
11	0	0	0	0	508	508	0	475	39	29	
12	0	0	0	0	509	512	0	495	39	29	
13	0	0	0	0	504	512	0	497	39	27	
14	0	0	0	0	507	515	0	492	39	24	
15	0	0	0	0	505	521	0	505	39	22	
0	0	0	0	0	511	518	0	511	39	23	
1	0	0	0	0	509	514	0	502	39	25	
2	0	0	0	0	513	512	0	491	39	27	
3	0	0	0	0	504	516	0	481	39	29	
4	0	0	0	0	511	519	0	473	39	29	
5	0	0	0	0	501	524	0	469	39	28	
6	0	0	0	0	506	525	0	462	39	25	
7	0	0	0	0	511	521	0	460	39	23	
8	0	0	0	0	515	520	0	462	39	22	
9	0	0	0	0	510	520	0	482	39	24	
10	0	0	0	0	504	521	0	495	39	27	
11	0	0	0	0	507	518	0	494	39	28	
12	0	0	0	0	509	517	0	490	39	30	
13	0	0	0	0	505	526	0	484	39	29	
14	0	0	0	0	510	527	0	488	39	26	
15	0	0	0	0	508	525	0	487	39	23	
0	0	0	0	0	514	518	0	495	39	22	
1	0	0	0	0	513	509	0	513	39	23	
2	0	0	0	0	505	505	0	514	39	26	
3	0	0	0	0	502	512	0	506	39	28	
4	0	0	0	0	515	515	0	493	39	29	
5	0	0	0	0	509	510	0	482	39	29	
6	0	0	0	0	501	505	0	476	39	27	
7	0	0	0	0	505	506	0	472	39	24	
8	0	0	0	0	512	506	0	468	39	22	
9	0	0	0	0	509	505	0	484	39	23	
10	0	0	0	0	513	508	0	503	39	25	
11	0	0	0	0	508	509	0	506	39	27	
12	0	0	0	0	501	512	0	503	39	29	
13	0	0	0	0	508	518	0	496	39	30	
14	0	0	0	0	503	521	0	485	39	28	
15	0	0	0	0	509	520	0	490	39	25	
0	0	0	0	0	505	523	0	503	39	23	
1	0	0	0	0	511	526	0	502	39	22	
2	0	0	0	0	507	525	0	496	39	24	
3	0	0	0	0	505	521	0	488	39	27	
4	0	0	0	0	509	520	0	483	39	28	
5	0	0	0	0	514	523	0	478	39	30	
6	0	0	0	0	506	526	0	477	39	29	
7	0	0	0	0	508	530	0	475	39	26	
8	0	0	0	0	507	531	0	474	39	23	
9	0	0	0	0	512	525	0	486	39	22	
10	0	0	0	0	504	518	0	513	39	23	
11	0	0	0	0	513	519	0	518	39	26	
12	0	0	0	0	508	521	0	536	39	28	
13	0	0	0	0	510	524	0	543	39	29	
14	0	0	0	0	509	525	0	544	39	29	
15	0	0	0	0	510	527	0	553	39	27	
0	0	0	0	0	504	530	0	547	39	24	
1	0	0	0	0	508	524	0	555	39	22	
2	0	0	0	0	503	518	0	554	39	23	
3	0	0	0	0	507	513	0	542	39	25	
4	0	0	0	0	505	510	0	525	39	27	
5	0	0	0	0	509	512	0	511	39	29	
6	0	0	0	0	516	514	0	498	39	29	
7	0	0	0	0	510	513	0	491	39	28	
8	0	0	0	0	512	513	0	481	39	25	
9	0	0	0	0	504	519	0	480	39	23	
10	0	0	0	0	504	527	0	481	39	22	
11	0	0	0	0	504	531	0	503	39	24	
12	0	0	0	0	514	535	0	516	39	27	
13	0	0	0	0	507	537	0	513	39	28	
14	0	0	0	0	514	536	0	515	39	30	
15	0	0	0	0	504	533	0	530	39	29	
0	0	0	0	0	511	527	0	529	39	26	
1	0	0	0	0	509	527	0	538	39	23	
2	0	0	0	0	510	534	0	550	39	22	
3	0	0	0	0	513	536	0	543	39	23	
4	0	0	0	0	508	537	0	529	39	26	
5	0	0	0	0	511	536	0	515	39	28	
6	0	0	0	0	508	533	0	499	39	29	
7	0	0	0	0	510	530	0	501	39	29	
8	0	0	0	0	507	532	0	513	39	27	
9	0	0	0	0	511	532	0	510	39	24	
10	0	0	0	0	507	532	0	503	39	22	
11	0	0	0	0	504	531	0	507	39	23	
12	0	0	0	0	512	527	0	500	39	25	
13	0	0	0	0	509	527	0	496	39	27	
14	0	0	0	0	507	526	0	491	39	29	
15	0	0	0	0	505	524	0	487	39	30	
0	0	0	0	0	504	519	0	483	39	28	
1	0	0	0	0	505	513	0	480	39	25	
2	0	0	0	0	512	511	0	487	39	23	
3	0	0	0	0	509	512	0	519	39	22	
4	0	0	0	0	509	515	0	524	39	24	
5	0	0	0	0	506	516	0	539	39	27	
6	0	0	0	0	511	516	0	551	39	29	
7	0	0	0	0	512	510	0	550	39	30	
8	0	0	0	0	507	508	0	561	39	29	
9	0	0	0	0	512	515	0	556	39	26	
10	0	0	0	0	508	516	0	541	39	23	
11	0	0	0	0	510	510	0	525	39	22	
12	0	0	0	0	502	506	0	510	39	24	
13	0	0	0	0	507	502	0	500	39	26	
14	0	0	0	0	509	494	0	492	39	28	
15	0	0	0	0	508	495	0	488	39	29	
0	0	0	0	0	513	503	0	497	39	29	
1	0	0	0	0	506	508	0	516	39	27	
2	0	0	0	0	511	509	0	520	39	24	
3	0	0	0	0	506	501	0	513	39	22	
4	0	0	0	0	507	490	0	506	39	23	
5	0	0	0	0	508	488	0	499	39	25	
6	0	0	0	0	510	493	0	496	39	27	
7	0	0	0	0	503	495	0	495	39	29	
8	0	0	0	0	505	500	0	511	39	30	
9	0	0	0	0	508	507	0	524	39	28	
10	0	0	0	0	508	512	0	520	39	25	
11	0	0	0	0	512	511	0	521	39	22	
12	0	0	0	0	509	507	0	522	39	22	
13	0	0	0	0	511	504	0	517	39	24	
14	0	0	0	0	505	505	0	510	39	27	
15	0	0	0	0	506	502	0	504	39	29	
0	0	0	0	0	507	499	0	500	39	30	
1	0	0	0	0	506	496	0	500	39	29	
2	0	0	0	0	507	499	0	521	39	26	
3	0	0	0	0	512	504	0	535	39	23	
4	0	0	0	0	507	507	0	533	39	22	
5	0	0	0	0	509	497	0	526	39	24	
6	0	0	0	0	505	485	0	517	39	26	
7	0	0	0	0	508	477	0	510	39	28	
8	0	0	0	0	511	478	0	504	39	29	
9	0	0	0	0	505	483	0	508	39	29	
10	0	0	0	0	508	489	0	528	39	27	
11	0	0	0	0	513	495	0	532	39	24	
12	0	0	0	0	506	498	0	527	39	22	
13	0	0	0	0	506	497	0	517	39	23	
14	0	0	0	0	514	497	0	509	39	25	
15	0	0	0	0	511	498	0	510	39	27	
0	0	0	0	0	508	499	0	525	39	29	
1	0	0	0	0	508	499	0	528	39	29	
2	0	0	0	0	504	497	0	523	39	28	
3	0	0	0	0	505	498	0	515	39	25	
4	0	0	0	0	505	501	0	510	39	22	
5	0	0	0	0	510	506	0	503	39	22	
6	0	0	0	0	512	513	0	499	39	24	
7	0	0	0	0	515	521	0	496	39	27	
8	0	0	0	0	508	525	0	497	39	29	
9	0	0	0	0	506	522	0	499	39	30	
10	0	0	0	0	508	515	0	524	39	29	
11	0	0	0	0	505	510	0	533	39	26	
12	0	0	0	0	503	505	0	528	39	23	
13	0	0	0	0	509	503	0	520	39	22	
14	0	0	0	0	509	503	0	516	39	24	
15	0	0	0	0	509	505	0	520	39	26	
0	0	0	0	0	510	511	0	538	39	28	
1	0	0	0	0	509	510	0	547	39	29	
2	0	0	0	0	509	509	0	541	39	29	
3	0	0	0	0	503	513	0	529	39	27	
4	0	0	0	0	506	526	0	517	39	24	
5	0	0	0	0	509	547	0	507	39	22	
6	0	0	0	0	509	561	0	497	39	23	
7	0	0	0	0	514	572	0	492	39	25	
8	0	0	0	0	500	589	0	486	39	27	
9	0	0	0	0	508	601	0	486	39	29	
10	0	0	0	0	508	618	0	506	39	29	
11	0	0	0	0	504	637	0	518	39	28	
12	0	0	0	0	510	659	0	529	39	25	
13	0	0	0	0	503	679	0	542	39	22	
14	0	0	0	0	513	688	0	540	39	22	
15	0	0	0	0	512	696	0	548	39	24	
0	0	0	0	0	508	705	0	544	39	27	
1	0	0	0	0	501	723	0	541	39	29	
2	0	0	0	0	509	741	0	549	39	30	
3	0	0	0	0	514	756	0	542	39	28	
4	0	0	0	0	513	766	0	526	39	26	
5	0	0	0	0	509	777	0	509	39	23	
6	0	0	0	0	508	791	0	498	39	22	
7	0	0	0	0	509	805	0	495	39	24	
8	0	0	0	0	505	819	0	509	39	26	
9	0	0	0	0	501	832	0	512	39	28	
10	0	0	0	0	513	833	0	507	39	29	
11	0	0	0	0	504	829	0	509	39	29	
12	0	0	0	0	507	822	0	505	39	27	
13	0	0	0	0	506	811	0	499	39	24	
14	0	0	0	0	505	791	0	492	39	22	
15	0	0	0	0	510	766	0	486	39	23	
0	0	0	0	0	516	743	0	481	39	25	
1	0	0	0	0	513	715	0	496	39	27	
2	0	0	0	0	510	692	0	508	39	29	
3	0	0	0	0	509	673	0	513	39	29	
4	0	0	0	0	505	656	0	508	39	28	
5	0	0	0	0	505	636	0	500	39	25	
6	0	0	0	0	508	611	0	493	39	22	
7	0	0	0	0	507	589	0	488	39	22	
8	0	0	0	0	506	562	0	481	39	24	
9	0	0	0	0	507	531	0	494	39	27	
10	0	0	0	0	510	507	0	509	39	29	
11	0	0	0	0	505	466	0	510	39	30	
12	0	0	0	0	505	423	0	501	39	28	
13	0	0	0	0	503	398	0	491	39	26	
14	0	0	0	0	508	395	0	480	39	23	
15	0	0	0	0	509	400	0	486	39	22	
0	0	0	0	0	513	400	0	496	39	24	
1	0	0	0	0	508	400	0	492	39	26	
2	0	0	0	0	504	399	0	484	39	28	
3	0	0	0	0	508	396	0	477	39	29	
4	0	0	0	0	510	394	0	471	39	29	
5	0	0	0	0	511	395	0	468	39	27	
6	0	0	0	0	512	395	0	467	39	24	
7	0	0	0	0	506	397	0	465	39	22	
8	0	0	0	0	506	400	0	464	39	23	
9	0	0	0	0	508	400	0	472	39	25	
10	0	0	0	0	504	401	0	494	39	28	
11	0	0	0	0	508	402	0	500	39	29	
12	0	0	0	0	518	404	0	496	39	29	
13	0	0	0	0	508	408	0	499	39	28	
14	0	0	0	0	516	413	0	495	39	25	
15	0	0	0	0	510	415	0	487	39	22	
0	0	0	0	0	508	415	0	481	39	22	
1	0	0	0	0	502	415	0	496	39	24	
2	0	0	0	0	505	415	0	508	39	27	
3	0	0	0	0	506	419	0	505	39	29	
4	0	0	0	0	500	425	0	496	39	30	
5	0	0	0	0	513	427	0	487	39	28	
6	0	0	0	0	512	425	0	478	39	26	
7	0	0	0	0	512	426	0	472	39	23	
8	0	0	0	0	508	427	0	477	39	22	
9	0	0	0	0	510	433	0	491	39	24	
10	0	0	0	0	504	436	0	491	39	26	
11	0	0	0	0	506	439	0	483	39	28	
12	0	0	0	0	511	441	0	492	39	29	
13	0	0	0	0	510	443	0	503	39	29	
14	0	0	0	0	508	446	0	506	39	27	
15	0	0	0	0	512	448	0	536	39	24	
0	0	0	0	0	509	448	0	515	39	22	
1	0	0	0	0	504	447	0	497	39	23	
2	0	0	0	0	504	451	0	483	39	25	
3	0	0	0	0	506	451	0	472	39	28	
4	0	0	0	0	502	446	0	466	39	29	
5	0	0	0	0	506	448	0	460	39	29	
6	0	0	0	0	509	450	0	461	39	28	
7	0	0	0	0	507	444	0	457	39	25	
8	0	0	0	0	510	444	0	461	39	22	
9	0	0	0	0	514	449	0	483	39	22	
10	0	0	0	0	505	456	0	493	39	25	
11	0	0	0	0	505	464	0	492	39	27	
12	0	0	0	0	508	468	0	494	39	29	
13	0	0	0	0	513	470	0	493	39	30	
14	0	0	0	0	507	467	0	487	39	28	
15	0	0	0	0	506	464	0	480	39	26	
0	0	0	0	0	503	467	0	475	39	23	
1	0	0	0	0	507	470	0	480	39	22	
2	0	0	0	0	512	467	0	499	39	24	
3	0	0	0	0	511	466	0	505	39	26	
4	0	0	0	0	508	452	0	500	39	28	
5	0	0	0	0	505	442	0	492	39	29	
6	0	0	0	0	504	446	0	486	39	29	
7	0	0	0	0	502	457	0	480	39	27	
8	0	0	0	0	511	473	0	479	39	24	
9	0	0	0	0	508	485	0	497	39	22	
10	0	0	0	0	507	498	0	512	39	23	
11	0	0	0	0	507	505	0	512	39	25	
12	0	0	0	0	502	495	0	507	39	28	
13	0	0	0	0	512	476	0	499	39	29	
14	0	0	0	0	510	471	0	493	39	29	
15	0	0	0	0	510	473	0	487	39	28	
0	0	0	0	0	503	473	0	502	39	25	
1	0	0	0	0	513	475	0	511	39	22	
2	0	0	0	0	513	479	0	513	39	22	
3	0	0	0	0	508	480	0	509	39	25	
4	0	0	0	0	508	480	0	503	39	27	
5	0	0	0	0	515	478	0	497	39	29	
6	0	0	0	0	504	477	0	493	39	30	
7	0	0	0	0	509	483	0	491	39	28	
8	0	0	0	0	512	483	0	488	39	26	
9	0	0	0	0	508	473	0	505	39	23	
10	0	0	0	0	510	463	0	524	39	22	
11	0	0	0	0	511	464	0	524	39	24	
12	0	0	0	0	504	473	0	520	39	26	
13	0	0	0	0	505	479	0	522	39	28	
14	0	0	0	0	512	479	0	513	39	29	
15	0	0	0	0	508	481	0	517	39	29	
0	0	0	0	0	507	486	0	534	39	27	
1	0	0	0	0	510	478	0	534	39	24	
2	0	0	0	0	506	472	0	524	39	22	
3	0	0	0	0	508	475	0	513	39	23	
4	0	0	0	0	512	482	0	515	39	25	
5	0	0	0	0	510	487	0	512	39	28	
6	0	0	0	0	511	488	0	508	39	29	
7	0	0	0	0	505	488	0	502	39	29	
8	0	0	0	0	511	489	0	497	39	28	
9	0	0	0	0	507	492	0	494	39	25	
10	0	0	0	0	506	486	0	498	39	22	
11	0	0	0	0	506	483	0	524	39	22	
12	0	0	0	0	510	484	0	529	39	25	
13	0	0	0	0	508	487	0	524	39	27	
14	0	0	0	0	512	491	0	530	39	29	
15	0	0	0	0	504	493	0	544	39	30	
0	0	0	0	0	519	494	0	540	39	28	
1	0	0	0	0	505	495	0	529	39	26	
2	0	0	0	0	503	496	0	519	39	23	
3	0	0	0	0	504	497	0	507	39	22	
4	0	0	0	0	500	497	0	501	39	24	
5	0	0	0	0	506	499	0	497	39	26	
6	0	0	0	0	508	503	0	494	39	28	
7	0	0	0	0	509	506	0	491	39	29	
8	0	0	0	0	503	506	0	501	39	29	
9	0	0	0	0	505	500	0	521	39	27	
10	0	0	0	0	510	494	0	524	39	24	
11	0	0	0	0	514	489	0	520	39	22	
12	0	0	0	0	512	493	0	510	39	23	
13	0	0	0	0	511	501	0	504	39	25	
14	0	0	0	0	506	504	0	498	39	28	
15	0	0	0	0	502	499	0	495	39	29	
0	0	0	0	0	504	498	0	487	39	29	
1	0	0	0	0	507	500	0	483	39	28	
2	0	0	0	0	510	499	0	484	39	25	
3	0	0	0	0	504	497	0	481	39	22	
4	0	0	0	0	505	502	0	482	39	22	
5	0	0	0	0	513	508	0	483	39	25	
6	0	0	0	0	512	511	0	483	39	27	
7	0	0	0	0	507	513	0	484	39	29	
8	0	0	0	0	510	510	0	481	39	30	
9	0	0	0	0	503	503	0	479	39	28	
10	0	0	0	0	508	500	0	479	39	26	
11	0	0	0	0	502	503	0	481	39	23	
12	0	0	0	0	507	513	0	481	39	22	
13	0	0	0	0	505	526	0	483	39	24	
14	0	0	0	0	516	537	0	484	39	26	
15	0	0	0	0	509	539	0	483	39	28	
0	0	0	0	0	517	529	0	480	39	29	
1	0	0	0	0	504	523	0	478	39	29	
2	0	0	0	0	514	520	0	480	39	27	
3	0	0	0	0	507	521	0	484	39	24	
4	0	0	0	0	512	525	0	509	39	22	
5	0	0	0	0	509	527	0	527	39	23	
6	0	0	0	0	501	526	0	527	39	26	
7	0	0	0	0	507	522	0	521	39	28	
8	0	0	0	0	508	520	0	512	39	29	
9	0	0	0	0	503	510	0	501	39	29	
10	0	0	0	0	500	508	0	495	39	28	
11	0	0	0	0	506	516	0	491	39	25	
12	0	0	0	0	509	519	0	495	39	22	
13	0	0	0	0	515	523	0	521	39	22	
14	0	0	0	0	500	525	0	532	39	25	
15	0	0	0	0	507	525	0	547	39	27	
0	0	0	0	0	514	525	0	559	39	29	
1	0	0	0	0	515	521	0	559	39	30	
2	0	0	0	0	505	518	0	570	39	28	
3	0	0	0	0	509	526	0	568	39	26	
4	0	0	0	0	508	539	0	570	39	23	
5	0	0	0	0	506	548	0	575	39	22	
6	0	0	0	0	511	548	0	570	39	24	
7	0	0	0	0	518	542	0	579	39	26	
8	0	0	0	0	516	536	0	575	39	28	
9	0	0	0	0	504	530	0	559	39	29	
10	0	0	0	0	504	526	0	540	39	29	
11	0	0	0	0	506	519	0	524	39	27	
12	0	0	0	0	508	520	0	522	39	24	
13	0	0	0	0	509	524	0	504	39	22	
14	0	0	0	0	505	527	0	495	39	23	
15	0	0	0	0	509	531	0	491	39	26	
0	0	0	0	0	508	537	0	496	39	28	
1	0	0	0	0	508	540	0	517	39	29	
2	0	0	0	0	506	540	0	524	39	29	
3	0	0	0	0	508	542	0	522	39	28	
4	0	0	0	0	513	543	0	515	39	25	
5	0	0	0	0	508	540	0	509	39	22	
6	0	0	0	0	507	541	0	504	39	22	
7	0	0	0	0	505	541	0	502	39	25	
8	0	0	0	0	510	539	0	512	39	27	
9	0	0	0	0	501	539	0	529	39	29	
10	0	0	0	0	511	547	0	531	39	30	
11	0	0	0	0	505	556	0	528	39	28	
12	0	0	0	0	517	560	0	531	39	26	
13	0	0	0	0	512	560	0	524	39	23	
14	0	0	0	0	507	556	0	515	39	22	
15	0	0	0	0	498	553	0	510	39	24	
0	0	0	0	0	505	551	0	504	39	26	
1	0	0	0	0	506	553	0	501	39	28	
2	0	0	0	0	508	555	0	498	39	29	
3	0	0	0	0	504	555	0	509	39	29	
4	0	0	0	0	510	556	0	535	39	27	
5	0	0	0	0	511	557	0	543	39	24	
6	0	0	0	0	507	556	0	538	39	22	
7	0	0	0	0	510	555	0	547	39	23	
8	0	0	0	0	508	552	0	553	39	26	
9	0	0	0	0	510	555	0	544	39	28	
10	0	0	0	0	509	560	0	532	39	29	
11	0	0	0	0	509	566	0	522	39	29	
12	0	0	0	0	508	570	0	513	39	28	
13	0	0	0	0	503	573	0	506	39	25	
14	0	0	0	0	505	571	0	504	39	22	
15	0	0	0	0	505	566	0	499	39	22	
0	0	0	0	0	509	566	0	496	39	25	
1	0	0	0	0	511	568	0	512	39	27	
2	0	0	0	0	512	566	0	533	39	29	
3	0	0	0	0	507	563	0	536	39	30	
4	0	0	0	0	508	563	0	529	39	28	
5	0	0	0	0	504	564	0	520	39	26	
6	0	0	0	0	507	564	0	522	39	23	
7	0	0	0	0	507	564	0	514	39	22	
8	0	0	0	0	507	565	0	526	39	24	
9	0	0	0	0	503	566	0	524	39	26	
10	0	0	0	0	516	565	0	517	39	28	
11	0	0	0	0	511	564	0	521	39	29	
12	0	0	0	0	506	564	0	518	39	29	
13	0	0	0	0	508	563	0	512	39	27	
14	0	0	0	0	510	561	0	508	39	24	
15	0	0	0	0	502	556	0	500	39	22	
0	0	0	0	0	512	544	0	494	39	23	
1	0	0	0	0	513	537	0	491	39	26	
2	0	0	0	0	509	541	0	496	39	28	
3	0	0	0	0	512	548	0	520	39	29	
4	0	0	0	0	504	554	0	529	39	29	
5	0	0	0	0	502	550	0	540	39	27	
6	0	0	0	0	512	541	0	552	39	24	
7	0	0	0	0	507	527	0	550	39	22	
8	0	0	0	0	504	520	0	558	39	23	
9	0	0	0	0	506	524	0	553	39	25	
10	0	0	0	0	509	528	0	537	39	27	
11	0	0	0	0	509	517	0	522	39	29	
12	0	0	0	0	508	504	0	507	39	30	
13	0	0	0	0	512	506	0	496	39	28	
14	0	0	0	0	506	515	0	489	39	25	
15	0	0	0	0	512	516	0	485	39	23	
0	0	0	0	0	506	516	0	492	39	22	
1	0	0	0	0	503	516	0	509	39	24	
2	0	0	0	0	507	510	0	512	39	26	
3	0	0	0	0	509	512	0	504	39	28	
4	0	0	0	0	516	508	0	508	39	29	
5	0	0	0	0	510	492	0	485	39	29	
6	0	0	0	0	509	486	0	479	39	26	
7	0	0	0	0	510	479	0	479	39	24	
8	0	0	0	0	507	477	0	494	39	22	
9	0	0	0	0	507	478	0	505	39	23	
10	0	0	0	0	507	472	0	503	39	26	
11	0	0	0	0	506	465	0	498	39	28	
12	0	0	0	0	505	463	0	495	39	29	
13	0	0	0	0	510	463	0	500	39	29	
14	0	0	0	0	513	464	0	496	39	27	
15	0	0	0	0	509	467	0	499	39	24	
0	0	0	0	0	510	467	0	517	39	22	
1	0	0	0	0	507	467	0	519	39	23	
2	0	0	0	0	504	468	0	510	39	25	
3	0	0	0	0	505	463	0	498	39	27	
4	0	0	0	0	500	458	0	488	39	29	
5	0	0	0	0	507	456	0	479	39	30	
6	0	0	0	0	505	460	0	474	39	28	
7	0	0	0	0	510	460	0	471	39	25	
8	0	0	0	0	513	461	0	467	39	23	
9	0	0	0	0	509	462	0	476	39	22	
10	0	0	0	0	507	460	0	497	39	24	
11	0	0	0	0	509	458	0	503	39	26	
12	0	0	0	0	513	454	0	500	39	28	
13	0	0	0	0	504	454	0	489	39	29	
14	0	0	0	0	511	454	0	481	39	29	
15	0	0	0	0	507	451	0	481	39	26	
0	0	0	0	0	511	452	0	497	39	23	
1	0	0	0	0	507	451	0	503	39	22	
2	0	0	0	0	508	448	0	497	39	23	
3	0	0	0	0	511	448	0	490	39	26	
4	0	0	0	0	508	449	0	483	39	28	
5	0	0	0	0	513	448	0	477	39	29	
6	0	0	0	0	511	447	0	474	39	29	
7	0	0	0	0	498	449	0	469	39	27	
8	0	0	0	0	510	449	0	465	39	24	
9	0	0	0	0	511	449	0	470	39	22	
10	0	0	0	0	508	451	0	495	39	23	
11	0	0	0	0	504	454	0	505	39	25	
12	0	0	0	0	512	456	0	503	39	27	
13	0	0	0	0	510	453	0	505	39	29	
14	0	0	0	0	507	454	0	505	39	30	
15	0	0	0	0	504	454	0	503	39	28	
0	0	0	0	0	506	457	0	518	39	25	
1	0	0	0	0	504	461	0	531	39	23	
2	0	0	0	0	507	463	0	526	39	22	
3	0	0	0	0	506	464	0	518	39	24	
4	0	0	0	0	510	467	0	508	39	26	
5	0	0	0	0	510	466	0	499	39	28	
6	0	0	0	0	511	465	0	490	39	29	
7	0	0	0	0	504	462	0	487	39	29	
8	0	0	0	0	508	459	0	493	39	26	
9	0	0	0	0	514	457	0	514	39	23	
10	0	0	0	0	512	454	0	522	39	22	
11	0	0	0	0	504	454	0	534	39	23	
12	0	0	0	0	505	452	0	546	39	26	
13	0	0	0	0	504	453	0	560	39	28	
14	0	0	0	0	506	454	0	558	39	29	
15	0	0	0	0	509	455	0	551	39	29	
0	0	0	0	0	508	460	0	534	39	27	
1	0	0	0	0	510	466	0	517	39	24	
2	0	0	0	0	505	459	0	503	39	22	
3	0	0	0	0	508	456	0	495	39	23	
4	0	0	0	0	513	459	0	488	39	25	
5	0	0	0	0	504	460	0	485	39	27	
6	0	0	0	0	508	463	0	483	39	29	
7	0	0	0	0	507	466	0	484	39	30	
8	0	0	0	0	505	460	0	486	39	28	
9	0	0	0	0	507	457	0	507	39	25	
10	0	0	0	0	515	464	0	523	39	23	
11	0	0	0	0	515	468	0	521	39	22	
12	0	0	0	0	498	464	0	519	39	24	
13	0	0	0	0	513	455	0	518	39	27	
14	0	0	0	0	510	454	0	513	39	28	
15	0	0	0	0	511	460	0	522	39	30	
0	0	0	0	0	505	461	0	536	39	29	
1	0	0	0	0	507	460	0	533	39	26	
2	0	0	0	0	506	463	0	523	39	23	
3	0	0	0	0	504	469	0	512	39	22	
4	0	0	0	0	516	472	0	500	39	23	
5	0	0	0	0	503	473	0	501	39	26	
6	0	0	0	0	502	476	0	489	39	28	
7	0	0	0	0	509	480	0	486	39	29	
8	0	0	0	0	504	483	0	486	39	29	
9	0	0	0	0	502	482	0	504	39	27	
10	0	0	0	0	510	484	0	527	39	24	
11	0	0	0	0	512	489	0	531	39	22	
12	0	0	0	0	505	491	0	526	39	23	
13	0	0	0	0	509	484	0	517	39	25	
14	0	0	0	0	511	476	0	508	39	27	
15	0	0	0	0	516	467	0	514	39	29	
0	0	0	0	0	507	459	0	529	39	30	
1	0	0	0	0	511	459	0	527	39	28	
2	0	0	0	0	511	465	0	519	39	25	
3	0	0	0	0	504	476	0	512	39	23	
4	0	0	0	0	504	482	0	505	39	22	
5	0	0	0	0	515	483	0	503	39	24	
6	0	0	0	0	510	483	0	502	39	27	
7	0	0	0	0	504	483	0	501	39	28	
8	0	0	0	0	510	486	0	500	39	30	
9	0	0	0	0	504	488	0	516	39	29	
10	0	0	0	0	505	490	0	504	39	26	
11	0	0	0	0	506	491	0	504	39	23	
12	0	0	0	0	513	488	0	529	39	22	
13	0	0	0	0	508	484	0	545	39	23	
14	0	0	0	0	500	481	0	557	39	26	
15	0	0	0	0	507	481	0	574	39	28	
0	0	0	0	0	511	491	0	570	39	29	
1	0	0	0	0	509	494	0	567	39	29	
2	0	0	0	0	510	486	0	554	39	27	
3	0	0	0	0	506	483	0	541	39	24	
4	0	0	0	0	504	485	0	532	39	22	
5	0	0	0	0	510	492	0	525	39	23	
6	0	0	0	0	509	496	0	520	39	25	
7	0	0	0	0	507	497	0	514	39	27	
8	0	0	0	0	501	499	0	512	39	29	
9	0	0	0	0	511	500	0	513	39	30	
10	0	0	0	0	512	503	0	512	39	28	
11	0	0	0	0	512	501	0	512	39	25	
12	0	0	0	0	513	494	0	529	39	23	
13	0	0	0	0	508	482	0	551	39	22	
14	0	0	0	0	506	483	0	560	39	24	
15	0	0	0	0	502	483	0	577	39	27	
0	0	0	0	0	510	483	0	575	39	28	
1	0	0	0	0	507	483	0	563	39	30	
2	0	0	0	0	508	484	0	548	39	29	
3	0	0	0	0	503	486	0	536	39	26	
4	0	0	0	0	513	487	0	529	39	23	
5	0	0	0	0	511	488	0	523	39	22	
6	0	0	0	0	510	486	0	519	39	23	
7	0	0	0	0	505	483	0	519	39	26	
8	0	0	0	0	511	482	0	525	39	28	
9	0	0	0	0	507	488	0	563	39	29	
10	0	0	0	0	511	492	0	557	39	29	
11	0	0	0	0	514	494	0	552	39	27	
12	0	0	0	0	508	489	0	552	39	24	
13	0	0	0	0	508	485	0	553	39	22	
14	0	0	0	0	511	487	0	547	39	23	
15	0	0	0	0	512	490	0	538	39	25	
0	0	0	0	0	509	495	0	531	39	27	
1	0	0	0	0	508	497	0	537	39	29	
2	0	0	0	0	501	494	0	557	39	30	
3	0	0	0	0	510	492	0	560	39	28	
4	0	0	0	0	508	495	0	557	39	25	
5	0	0	0	0	505	496	0	545	39	23	
6	0	0	0	0	507	489	0	535	39	22	
7	0	0	0	0	509	489	0	527	39	24	
8	0	0	0	0	512	494	0	526	39	27	
9	0	0	0	0	504	500	0	544	39	28	
10	0	0	0	0	509	500	0	559	39	30	
11	0	0	0	0	507	497	0	557	39	29	
12	0	0	0	0	518	500	0	551	39	26	
13	0	0	0	0	505	502	0	542	39	23	
14	0	0	0	0	509	499	0	534	39	22	
15	0	0	0	0	509	488	0	525	39	23	
0	0	0	0	0	499	476	0	528	39	26	
1	0	0	0	0	508	473	0	545	39	28	
2	0	0	0	0	507	474	0	550	39	29	
3	0	0	0	0	511	479	0	544	39	29	
4	0	0	0	0	508	486	0	536	39	27	
5	0	0	0	0	505	490	0	528	39	24	
6	0	0	0	0	505	492	0	522	39	22	
7	0	0	0	0	509	492	0	517	39	23	
8	0	0	0	0	502	494	0	530	39	25	
9	0	0	0	0	510	499	0	529	39	27	
10	0	0	0	0	510	501	0	546	39	29	
11	0	0	0	0	512	504	0	549	39	30	
12	0	0	0	0	508	508	0	545	39	28	
13	0	0	0	0	509	512	0	546	39	25	
14	0	0	0	0	507	509	0	539	39	23	
15	0	0	0	0	510	505	0	542	39	22	
0	0	0	0	0	510	500	0	558	39	24	
1	0	0	0	0	508	498	0	572	39	27	
2	0	0	0	0	507	503	0	548	39	28	
3	0	0	0	0	508	495	0	536	39	30	
4	0	0	0	0	506	491	0	524	39	29	
5	0	0	0	0	514	492	0	517	39	26	
6	0	0	0	0	506	502	0	513	39	23	
7	0	0	0	0	502	510	0	510	39	22	
8	0	0	0	0	511	508	0	508	39	23	
9	0	0	0	0	512	503	0	518	39	26	
10	0	0	0	0	507	499	0	543	39	28	
11	0	0	0	0	508	501	0	550	39	29	
12	0	0	0	0	508	508	0	545	39	29	
13	0	0	0	0	505	510	0	533	39	27	
14	0	0	0	0	512	509	0	524	39	24	
15	0	0	0	0	509	511	0	523	39	22	
0	0	0	0	0	512	512	0	539	39	23	
1	0	0	0	0	504	506	0	544	39	25	
2	0	0	0	0	505	503	0	538	39	27	
3	0	0	0	0	510	507	0	530	39	29	
4	0	0	0	0	501	514	0	524	39	29	
5	0	0	0	0	504	516	0	518	39	28	
6	0	0	0	0	510	512	0	513	39	25	
7	0	0	0	0	506	510	0	509	39	23	
8	0	0	0	0	504	512	0	518	39	22	
9	0	0	0	0	508	511	0	535	39	24	
10	0	0	0	0	516	509	0	540	39	27	
11	0	0	0	0	512	511	0	535	39	28	
12	0	0	0	0	510	512	0	528	39	30	
13	0	0	0	0	503	515	0	529	39	29	
14	0	0	0	0	511	513	0	528	39	26	
15	0	0	0	0	510	512	0	519	39	23	
0	0	0	0	0	511	505	0	512	39	22	
1	0	0	0	0	512	499	0	524	39	23	
2	0	0	0	0	512	499	0	540	39	26	
3	0	0	0	0	506	497	0	541	39	28	
4	0	0	0	0	506	488	0	536	39	29	
5	0	0	0	0	505	491	0	527	39	29	
6	0	0	0	0	507	498	0	519	39	27	
7	0	0	0	0	508	504	0	517	39	24	
8	0	0	0	0	509	508	0	515	39	22	
9	0	0	0	0	511	515	0	531	39	23	
10	0	0	0	0	508	524	0	539	39	25	
11	0	0	0	0	509	529	0	533	39	27	
12	0	0	0	0	506	530	0	526	39	29	
13	0	0	0	0	510	527	0	517	39	29	
14	0	0	0	0	508	516	0	512	39	28	
15	0	0	0	0	505	502	0	506	39	25	
0	0	0	0	0	512	500	0	517	39	22	
1	0	0	0	0	509	505	0	528	39	22	
2	0	0	0	0	510	504	0	531	39	24	
3	0	0	0	0	502	494	0	521	39	27	
4	0	0	0	0	499	487	0	511	39	28	
5	0	0	0	0	505	487	0	500	39	30	
6	0	0	0	0	510	492	0	495	39	29	
7	0	0	0	0	511	499	0	493	39	26	
8	0	0	0	0	514	504	0	492	39	23	
9	0	0	0	0	504	507	0	512	39	22	
10	0	0	0	0	506	514	0	528	39	23	
11	0	0	0	0	500	518	0	529	39	26	
12	0	0	0	0	506	510	0	529	39	28	
13	0	0	0	0	507	504	0	527	39	29	
14	0	0	0	0	514	501	0	520	39	29	
15	0	0	0	0	510	504	0	527	39	27	
0	0	0	0	0	507	505	0	539	39	24	
1	0	0	0	0	504	507	0	534	39	22	
2	0	0	0	0	504	504	0	533	39	23	
3	0	0	0	0	509	503	0	513	39	25	
4	0	0	0	0	511	503	0	501	39	27	
5	0	0	0	0	511	505	0	496	39	29	
6	0	0	0	0	506	508	0	493	39	29	
7	0	0	0	0	516	511	0	492	39	28	
8	0	0	0	0	507	507	0	490	39	25	
9	0	0	0	0	511	498	0	506	39	22	
10	0	0	0	0	510	492	0	525	39	22	
11	0	0	0	0	508	495	0	529	39	24	
12	0	0	0	0	510	500	0	523	39	27	
13	0	0	0	0	506	505	0	514	39	29	
14	0	0	0	0	507	510	0	504	39	30	
15	0	0	0	0	510	513	0	505	39	29	
0	0	0	0	0	502	512	0	516	39	26	
1	0	0	0	0	502	512	0	515	39	23	
2	0	0	0	0	506	514	0	505	39	22	
3	0	0	0	0	507	514	0	498	39	24	
4	0	0	0	0	510	510	0	493	39	26	
5	0	0	0	0	509	509	0	489	39	28	
6	0	0	0	0	510	515	0	488	39	29	
7	0	0	0	0	510	519	0	487	39	29	
8	0	0	0	0	513	524	0	487	39	27	
9	0	0	0	0	508	526	0	496	39	24	
10	0	0	0	0	503	521	0	521	39	22	
11	0	0	0	0	503	514	0	527	39	23	
12	0	0	0	0	510	513	0	523	39	25	
13	0	0	0	0	512	513	0	524	39	27	
14	0	0	0	0	510	514	0	518	39	29	
15	0	0	0	0	508	516	0	516	39	29	
0	0	0	0	0	512	520	0	533	39	28	
1	0	0	0	0	504	520	0	539	39	25	
2	0	0	0	0	507	519	0	528	39	22	
3	0	0	0	0	518	517	0	518	39	22	
4	0	0	0	0	507	515	0	508	39	24	
5	0	0	0	0	499	515	0	499	39	27	
6	0	0	0	0	508	518	0	492	39	29	
7	0	0	0	0	503	517	0	488	39	30	
8	0	0	0	0	501	513	0	500	39	29	
9	0	0	0	0	511	517	0	517	39	26	
10	0	0	0	0	511	519	0	521	39	23	
11	0	0	0	0	507	514	0	519	39	22	
12	0	0	0	0	506	511	0	510	39	24	
13	0	0	0	0	512	505	0	504	39	26	
14	0	0	0	0	509	503	0	499	39	28	
15	0	0	0	0	509	504	0	495	39	29	
0	0	0	0	0	504	504	0	493	39	29	
1	0	0	0	0	513	509	0	506	39	27	
2	0	0	0	0	509	509	0	525	39	24	
3	0	0	0	0	514	512	0	528	39	22	
4	0	0	0	0	505	519	0	521	39	23	
5	0	0	0	0	503	518	0	512	39	25	
6	0	0	0	0	506	513	0	508	39	27	
7	0	0	0	0	508	508	0	509	39	29	
8	0	0	0	0	499	509	0	524	39	29	
9	0	0	0	0	508	508	0	524	39	28	
10	0	0	0	0	516	501	0	518	39	25	
11	0	0	0	0	511	502	0	510	39	22	
12	0	0	0	0	508	505	0	513	39	22	
13	0	0	0	0	510	510	0	516	39	24	
14	0	0	0	0	505	518	0	512	39	27	
15	0	0	0	0	506	529	0	506	39	29	
0	0	0	0	0	512	530	0	499	39	30	
1	0	0	0	0	510	524	0	506	39	29	
2	0	0	0	0	513	520	0	527	39	26	
3	0	0	0	0	504	520	0	532	39	23	
4	0	0	0	0	510	521	0	526	39	22	
5	0	0	0	0	512	509	0	513	39	24	
6	0	0	0	0	510	503	0	504	39	26	
7	0	0	0	0	507	513	0	499	39	28	
8	0	0	0	0	501	529	0	496	39	29	
9	0	0	0	0	507	513	0	492	39	29	
10	0	0	0	0	509	492	0	508	39	27	
11	0	0	0	0	513	485	0	531	39	24	
12	0	0	0	0	512	482	0	535	39	22	
13	0	0	0	0	502	492	0	530	39	23	
14	0	0	0	0	512	508	0	545	39	25	
15	0	0	0	0	508	515	0	549	39	28	
0	0	0	0	0	510	515	0	539	39	29	
1	0	0	0	0	516	513	0	526	39	29	
2	0	0	0	0	508	514	0	515	39	28	
3	0	0	0	0	508	516	0	509	39	25	
4	0	0	0	0	508	511	0	502	39	22	
5	0	0	0	0	511	506	0	498	39	22	
6	0	0	0	0	502	503	0	498	39	24	
7	0	0	0	0	507	497	0	498	39	27	
8	0	0	0	0	503	496	0	499	39	29	
9	0	0	0	0	510	499	0	516	39	30	
10	0	0	0	0	511	504	0	538	39	28	
11	0	0	0	0	509	508	0	542	39	26	
12	0	0	0	0	507	508	0	540	39	23	
13	0	0	0	0	511	507	0	541	39	22	
14	0	0	0	0	513	512	0	534	39	24	
15	0	0	0	0	508	515	0	536	39	26	
0	0	0	0	0	502	521	0	550	39	28	
1	0	0	0	0	510	523	0	548	39	29	
2	0	0	0	0	504	521	0	541	39	29	
3	0	0	0	0	506	519	0	529	39	27	
4	0	0	0	0	508	520	0	520	39	24	
5	0	0	0	0	508	519	0	514	39	22	
6	0	0	0	0	510	517	0	509	39	23	
7	0	0	0	0	506	518	0	507	39	25	
8	0	0	0	0	512	515	0	503	39	28	
9	0	0	0	0	512	519	0	513	39	29	
10	0	0	0	0	507	525	0	537	39	29	
11	0	0	0	0	512	532	0	542	39	28	
12	0	0	0	0	512	527	0	539	39	25	
13	0	0	0	0	508	521	0	529	39	22	
14	0	0	0	0	509	517	0	520	39	22	
15	0	0	0	0	508	516	0	519	39	25	
0	0	0	0	0	507	515	0	536	39	27	
1	0	0	0	0	506	517	0	537	39	29	
2	0	0	0	0	502	516	0	531	39	30	
3	0	0	0	0	511	515	0	524	39	28	
4	0	0	0	0	504	519	0	516	39	26	
5	0	0	0	0	511	520	0	510	39	23	
6	0	0	0	0	503	521	0	505	39	22	
7	0	0	0	0	506	519	0	499	39	24	
8	0	0	0	0	503	516	0	510	39	26	
9	0	0	0	0	509	515	0	526	39	28	
10	0	0	0	0	510	518	0	527	39	29	
11	0	0	0	0	511	522	0	521	39	29	
12	0	0	0	0	507	526	0	524	39	27	
13	0	0	0	0	505	525	0	527	39	24	
14	0	0	0	0	509	526	0	525	39	22	
15	0	0	0	0	507	531	0	520	39	23	
0	0	0	0	0	510	536	0	533	39	25	
1	0	0	0	0	510	536	0	541	39	28	
2	0	0	0	0	501	534	0	532	39	29	
3	0	0	0	0	510	523	0	521	39	29	
4	0	0	0	0	512	510	0	511	39	28	
5	0	0	0	0	508	510	0	502	39	25	
6	0	0	0	0	510	508	0	494	39	22	
7	0	0	0	0	513	503	0	489	39	22	
8	0	0	0	0	514	504	0	487	39	25	
9	0	0	0	0	508	510	0	488	39	27	
10	0	0	0	0	505	518	0	509	39	29	
11	0	0	0	0	502	528	0	524	39	30	
12	0	0	0	0	510	526	0	524	39	28	
13	0	0	0	0	504	524	0	517	39	26	
14	0	0	0	0	500	533	0	509	39	23	
15	0	0	0	0	507	537	0	502	39	22	
0	0	0	0	0	507	538	0	523	39	24	
1	0	0	0	0	515	538	0	522	39	26	
2	0	0	0	0	510	540	0	523	39	28	
3	0	0	0	0	507	543	0	518	39	29	
4	0	0	0	0	502	545	0	511	39	29	
5	0	0	0	0	507	544	0	504	39	27	
6	0	0	0	0	510	542	0	512	39	24	
7	0	0	0	0	511	544	0	498	39	22	
8	0	0	0	0	508	543	0	496	39	23	
9	0	0	0	0	506	535	0	515	39	25	
10	0	0	0	0	507	531	0	530	39	28	
11	0	0	0	0	509	534	0	531	39	29	
12	0	0	0	0	510	532	0	531	39	29	
13	0	0	0	0	510	532	0	531	39	28	
14	0	0	0	0	510	532	0	542	39	25	
15	0	0	0	0	516	526	0	532	39	22	
0	0	0	0	0	509	518	0	542	39	22	
1	0	0	0	0	503	511	0	537	39	25	
2	0	0	0	0	513	510	0	528	39	27	
3	0	0	0	0	501	513	0	517	39	29	
4	0	0	0	0	510	518	0	507	39	30	
5	0	0	0	0	504	519	0	500	39	28	
6	0	0	0	0	507	522	0	495	39	26	
7	0	0	0	0	507	526	0	497	39	23	
8	0	0	0	0	511	516	0	492	39	22	
9	0	0	0	0	501	507	0	507	39	24	
10	0	0	0	0	505	504	0	530	39	26	
11	0	0	0	0	510	503	0	533	39	28	
12	0	0	0	0	511	504	0	526	39	29	
13	0	0	0	0	508	504	0	516	39	29	
14	0	0	0	0	512	503	0	506	39	27	
15	0	0	0	0	509	499	0	511	39	24	
0	0	0	0	0	511	497	0	530	39	22	
1	0	0	0	0	505	495	0	522	39	23	
2	0	0	0	0	504	492	0	512	39	25	
3	0	0	0	0	506	491	0	521	39	28	
4	0	0	0	0	512	497	0	533	39	29	
5	0	0	0	0	517	506	0	538	39	29	
6	0	0	0	0	510	513	0	555	39	28	
7	0	0	0	0	508	514	0	552	39	25	
8	0	0	0	0	508	510	0	538	39	22	
9	0	0	0	0	502	504	0	535	39	22	
10	0	0	0	0	508	496	0	525	39	25	
11	0	0	0	0	510	491	0	514	39	27	
12	0	0	0	0	504	495	0	504	39	29	
13	0	0	0	0	508	501	0	496	39	30	
14	0	0	0	0	514	506	0	491	39	28	
15	0	0	0	0	513	512	0	489	39	26	
0	0	0	0	0	503	516	0	487	39	23	
1	0	0	0	0	508	519	0	484	39	22	
2	0	0	0	0	510	517	0	483	39	24	
3	0	0	0	0	506	506	0	483	39	26	
4	0	0	0	0	510	494	0	488	39	28	
5	0	0	0	0	500	490	0	511	39	29	
6	0	0	0	0	503	491	0	521	39	29	
7	0	0	0	0	509	495	0	535	39	27	
8	0	0	0	0	510	500	0	543	39	24	
9	0	0	0	0	513	502	0	539	39	22	
10	0	0	0	0	505	499	0	549	39	23	
11	0	0	0	0	509	498	0	545	39	25	
12	0	0	0	0	511	500	0	539	39	28	
13	0	0	0	0	514	503	0	515	39	29	
14	0	0	0	0	505	504	0	501	39	29	
15	0	0	0	0	511	502	0	495	39	28	
0	0	0	0	0	512	501	0	507	39	25	
1	0	0	0	0	512	499	0	515	39	22	
2	0	0	0	0	504	499	0	512	39	22	
3	0	0	0	0	503	503	0	507	39	25	
4	0	0	0	0	510	509	0	498	39	27	
5	0	0	0	0	510	506	0	490	39	29	
6	0	0	0	0	512	499	0	484	39	30	
7	0	0	0	0	507	500	0	481	39	28	
8	0	0	0	0	508	507	0	483	39	26	
9	0	0	0	0	508	511	0	503	39	23	
10	0	0	0	0	508	508	0	510	39	22	
11	0	0	0	0	511	506	0	507	39	24	
12	0	0	0	0	512	508	0	508	39	26	
13	0	0	0	0	513	509	0	510	39	28	
14	0	0	0	0	504	504	0	514	39	29	
15	0	0	0	0	507	500	0	508	39	29	
0	0	0	0	0	505	499	0	516	39	27	
1	0	0	0	0	511	504	0	528	39	24	
2	0	0	0	0	501	505	0	525	39	22	
3	0	0	0	0	505	508	0	515	39	23	
4	0	0	0	0	510	508	0	501	39	25	
5	0	0	0	0	510	501	0	488	39	28	
6	0	0	0	0	516	507	0	482	39	29	
7	0	0	0	0	508	505	0	478	39	29	
8	0	0	0	0	502	498	0	477	39	28	
9	0	0	0	0	508	505	0	502	39	25	
10	0	0	0	0	503	520	0	510	39	22	
11	0	0	0	0	505	531	0	520	39	22	
12	0	0	0	0	503	542	0	539	39	25	
13	0	0	0	0	508	548	0	541	39	27	
14	0	0	0	0	512	562	0	548	39	29	
15	0	0	0	0	511	583	0	546	39	30	
0	0	0	0	0	505	604	0	543	39	28	
1	0	0	0	0	509	625	0	550	39	26	
2	0	0	0	0	510	642	0	539	39	23	
3	0	0	0	0	509	655	0	522	39	22	
4	0	0	0	0	510	666	0	505	39	24	
5	0	0	0	0	513	680	0	493	39	26	
6	0	0	0	0	506	697	0	486	39	28	
7	0	0	0	0	508	717	0	480	39	29	
8	0	0	0	0	510	738	0	476	39	29	
9	0	0	0	0	508	755	0	474	39	27	
10	0	0	0	0	509	768	0	484	39	24	
11	0	0	0	0	503	779	0	508	39	22	
12	0	0	0	0	507	788	0	515	39	23	
13	0	0	0	0	502	796	0	533	39	26	
14	0	0	0	0	505	799	0	540	39	28	
15	0	0	0	0	505	806	0	540	39	29	
0	0	0	0	0	506	812	0	551	39	29	
1	0	0	0	0	512	819	0	544	39	28	
2	0	0	0	0	511	829	0	528	39	25	
3	0	0	0	0	516	827	0	530	39	22	
4	0	0	0	0	508	812	0	536	39	22	
5	0	0	0	0	505	790	0	532	39	25	
6	0	0	0	0	507	766	0	544	39	27	
7	0	0	0	0	510	741	0	540	39	29	
8	0	0	0	0	507	719	0	523	39	30	
9	0	0	0	0	503	698	0	509	39	28	
10	0	0	0	0	512	671	0	497	39	26	
11	0	0	0	0	508	648	0	488	39	23	
12	0	0	0	0	507	623	0	482	39	22	
13	0	0	0	0	509	595	0	476	39	24	
14	0	0	0	0	510	563	0	476	39	26	
15	0	0	0	0	509	532	0	474	39	28	
0	0	0	0	0	508	500	0	477	39	29	
1	0	0	0	0	512	473	0	498	39	29	
2	0	0	0	0	511	460	0	514	39	27	
3	0	0	0	0	511	448	0	530	39	24	
4	0	0	0	0	512	429	0	510	39	22	
5	0	0	0	0	507	419	0	499	39	23	
6	0	0	0	0	504	418	0	492	39	26	
7	0	0	0	0	502	410	0	484	39	28	
8	0	0	0	0	507	410	0	490	39	29	
9	0	0	0	0	508	413	0	506	39	29	
10	0	0	0	0	512	414	0	510	39	27	
11	0	0	0	0	512	412	0	506	39	25	
12	0	0	0	0	508	405	0	498	39	22	
13	0	0	0	0	506	403	0	492	39	22	
14	0	0	0	0	504	401	0	485	39	25	
15	0	0	0	0	511	399	0	481	39	27	
0	0	0	0	0	512	397	0	475	39	29	
1	0	0	0	0	500	395	0	469	39	30	
2	0	0	0	0	504	394	0	469	39	28	
3	0	0	0	0	509	393	0	470	39	26	
4	0	0	0	0	508	399	0	489	39	23	
5	0	0	0	0	510	404	0	476	39	22	
6	0	0	0	0	506	409	0	476	39	24	
7	0	0	0	0	510	412	0	477	39	26	
8	0	0	0	0	508	413	0	478	39	28	
9	0	0	0	0	504	416	0	474	39	29	
10	0	0	0	0	510	417	0	474	39	29	
11	0	0	0	0	508	417	0	473	39	27	
12	0	0	0	0	515	422	0	477	39	24	
13	0	0	0	0	504	423	0	479	39	22	
14	0	0	0	0	505	423	0	481	39	23	
15	0	0	0	0	509	424	0	483	39	26	
0	0	0	0	0	510	424	0	481	39	28	
1	0	0	0	0	513	420	0	480	39	29	
2	0	0	0	0	499	420	0	482	39	29	
3	0	0	0	0	508	424	0	488	39	27	
4	0	0	0	0	508	434	0	517	39	24	
5	0	0	0	0	511	444	0	536	39	22	
6	0	0	0	0	504	454	0	536	39	23	
7	0	0	0	0	508	456	0	530	39	25	
8	0	0	0	0	505	451	0	524	39	27	
9	0	0	0	0	511	445	0	540	39	29	
10	0	0	0	0	505	448	0	549	39	30	
11	0	0	0	0	500	448	0	558	39	28	
12	0	0	0	0	506	445	0	572	39	25	
13	0	0	0	0	518	444	0	569	39	23	
14	0	0	0	0	514	449	0	578	39	22	
15	0	0	0	0	516	450	0	577	39	24	
0	0	0	0	0	504	451	0	572	39	26	
1	0	0	0	0	504	456	0	576	39	28	
2	0	0	0	0	505	463	0	570	39	30	
3	0	0	0	0	508	467	0	564	39	29	
4	0	0	0	0	511	470	0	551	39	27	
5	0	0	0	0	508	473	0	537	39	24	
6	0	0	0	0	511	463	0	525	39	22	
7	0	0	0	0	508	457	0	517	39	23	
8	0	0	0	0	508	462	0	523	39	26	
9	0	0	0	0	505	468	0	506	39	28	
10	0	0	0	0	517	473	0	514	39	29	
11	0	0	0	0	503	473	0	535	39	29	
12	0	0	0	0	509	470	0	542	39	27	
13	0	0	0	0	508	471	0	536	39	24	
14	0	0	0	0	506	470	0	525	39	22	
15	0	0	0	0	503	469	0	516	39	23	
0	0	0	0	0	516	462	0	513	39	25	
1	0	0	0	0	510	458	0	530	39	27	
2	0	0	0	0	506	456	0	535	39	29	
3	0	0	0	0	511	460	0	547	39	30	
4	0	0	0	0	504	460	0	560	39	28	
5	0	0	0	0	506	460	0	559	39	25	
6	0	0	0	0	504	464	0	569	39	23	
7	0	0	0	0	510	467	0	560	39	22	
8	0	0	0	0	514	465	0	544	39	24	
9	0	0	0	0	508	461	0	535	39	26	
10	0	0	0	0	511	464	0	529	39	28	
11	0	0	0	0	511	469	0	521	39	30	
12	0	0	0	0	505	472	0	511	39	29	
13	0	0	0	0	512	479	0	503	39	26	
14	0	0	0	0	513	483	0	497	39	23	
15	0	0	0	0	507	483	0	499	39	22	
0	0	0	0	0	502	484	0	493	39	23	
1	0	0	0	0	508	483	0	491	39	26	
2	0	0	0	0	505	481	0	489	39	28	
3	0	0	0	0	512	481	0	489	39	29	
4	0	0	0	0	511	488	0	496	39	29	
5	0	0	0	0	511	493	0	522	39	27	
6	0	0	0	0	506	497	0	531	39	24	
7	0	0	0	0	504	499	0	543	39	22	
8	0	0	0	0	502	502	0	553	39	23	
9	0	0	0	0	515	505	0	543	39	25	
10	0	0	0	0	505	506	0	528	39	27	
11	0	0	0	0	507	505	0	513	39	29	
12	0	0	0	0	508	499	0	499	39	30	
13	0	0	0	0	506	494	0	490	39	28	
14	0	0	0	0	513	488	0	495	39	25	
15	0	0	0	0	518	481	0	481	39	23	
0	0	0	0	0	505	478	0	477	39	22	
1	0	0	0	0	500	486	0	488	39	24	
2	0	0	0	0	504	494	0	510	39	26	
3	0	0	0	0	500	484	0	513	39	28	
4	0	0	0	0	505	480	0	507	39	29	
5	0	0	0	0	510	489	0	497	39	29	
6	0	0	0	0	511	498	0	487	39	26	
7	0	0	0	0	506	501	0	473	39	23	
8	0	0	0	0	506	505	0	464	39	22	
9	0	0	0	0	510	507	0	456	39	23	
10	0	0	0	0	505	505	0	452	39	26	
11	0	0	0	0	511	503	0	453	39	28	
12	0	0	0	0	512	501	0	455	39	29	
13	0	0	0	0	518	498	0	459	39	29	
14	0	0	0	0	508	496	0	463	39	27	
15	0	0	0	0	504	498	0	462	39	24	
0	0	0	0	0	503	502	0	461	39	22	
1	0	0	0	0	508	500	0	458	39	23	
2	0	0	0	0	511	499	0	460	39	25	
3	0	0	0	0	504	498	0	464	39	27	
4	0	0	0	0	513	501	0	466	39	29	
5	0	0	0	0	513	510	0	469	39	30	
6	0	0	0	0	510	514	0	467	39	28	
7	0	0	0	0	505	512	0	468	39	25	
8	0	0	0	0	506	501	0	465	39	23	
9	0	0	0	0	507	496	0	462	39	22	
10	0	0	0	0	510	501	0	461	39	24	
11	0	0	0	0	507	504	0	477	39	27	
12	0	0	0	0	508	511	0	504	39	28	
13	0	0	0	0	504	515	0	512	39	30	
14	0	0	0	0	503	508	0	531	39	29	
15	0	0	0	0	513	503	0	537	39	26	
0	0	0	0	0	510	503	0	540	39	23	
1	0	0	0	0	517	501	0	551	39	22	
2	0	0	0	0	504	503	0	549	39	23	
3	0	0	0	0	503	507	0	557	39	26	
4	0	0	0	0	505	513	0	558	39	28	
5	0	0	0	0	512	517	0	544	39	29	
6	0	0	0	0	514	515	0	530	39	29	
7	0	0	0	0	503	513	0	539	39	27	
8	0	0	0	0	510	519	0	536	39	24	
9	0	0	0	0	513	525	0	540	39	22	
10	0	0	0	0	506	529	0	546	39	23	
11	0	0	0	0	511	530	0	554	39	25	
12	0	0	0	0	510	531	0	555	39	27	
13	0	0	0	0	500	531	0	550	39	29	
14	0	0	0	0	509	524	0	551	39	29	
15	0	0	0	0	508	529	0	551	39	28	
0	0	0	0	0	512	534	0	543	39	25	
1	0	0	0	0	510	534	0	549	39	23	
2	0	0	0	0	498	527	0	543	39	22	
3	0	0	0	0	503	516	0	527	39	24	
4	0	0	0	0	510	509	0	508	39	27	
5	0	0	0	0	512	515	0	494	39	28	
6	0	0	0	0	509	520	0	484	39	29	
7	0	0	0	0	506	512	0	477	39	29	
8	0	0	0	0	505	508	0	473	39	26	
9	0	0	0	0	505	512	0	470	39	23	
10	0	0	0	0	507	519	0	475	39	22	
11	0	0	0	0	509	524	0	499	39	23	
12	0	0	0	0	508	520	0	508	39	26	
13	0	0	0	0	511	521	0	504	39	28	
14	0	0	0	0	509	527	0	506	39	29	
15	0	0	0	0	504	532	0	522	39	29	
0	0	0	0	0	504	536	0	519	39	27	
1	0	0	0	0	503	531	0	508	39	24	
2	0	0	0	0	511	527	0	497	39	22	
3	0	0	0	0	510	528	0	487	39	23	
4	0	0	0	0	513	532	0	481	39	25	
5	0	0	0	0	508	531	0	476	39	27	
6	0	0	0	0	503	524	0	472	39	29	
7	0	0	0	0	510	527	0	469	39	29	
8	0	0	0	0	512	536	0	479	39	28	
9	0	0	0	0	507	542	0	495	39	25	
10	0	0	0	0	515	544	0	496	39	23	
11	0	0	0	0	505	547	0	492	39	22	
12	0	0	0	0	508	553	0	494	39	24	
13	0	0	0	0	513	556	0	492	39	27	
14	0	0	0	0	508	562	0	486	39	28	
15	0	0	0	0	508	568	0	480	39	29	
0	0	0	0	0	508	563	0	476	39	29	
1	0	0	0	0	513	553	0	471	39	26	
2	0	0	0	0	510	552	0	482	39	23	
3	0	0	0	0	502	555	0	502	39	22	
4	0	0	0	0	510	556	0	506	39	23	
5	0	0	0	0	504	556	0	522	39	26	
6	0	0	0	0	509	559	0	528	39	28	
7	0	0	0	0	511	563	0	531	39	29	
8	0	0	0	0	502	569	0	538	39	29	
9	0	0	0	0	503	568	0	531	39	27	
10	0	0	0	0	513	566	0	536	39	24	
11	0	0	0	0	513	565	0	536	39	22	
12	0	0	0	0	510	560	0	525	39	23	
13	0	0	0	0	508	561	0	507	39	25	
14	0	0	0	0	506	569	0	494	39	27	
15	0	0	0	0	505	575	0	482	39	29	
0	0	0	0	0	508	571	0	489	39	29	
1	0	0	0	0	506	568	0	499	39	28	
2	0	0	0	0	512	543	0	499	39	25	
3	0	0	0	0	504	532	0	493	39	23	
4	0	0	0	0	504	534	0	486	39	22	
5	0	0	0	0	513	541	0	485	39	24	
6	0	0	0	0	505	551	0	476	39	27	
7	0	0	0	0	510	558	0	475	39	28	
8	0	0	0	0	511	566	0	477	39	30	
9	0	0	0	0	516	569	0	496	39	29	
10	0	0	0	0	510	571	0	512	39	26	
11	0	0	0	0	506	572	0	512	39	23	
12	0	0	0	0	505	566	0	511	39	22	
13	0	0	0	0	505	564	0	500	39	23	
14	0	0	0	0	511	566	0	501	39	26	
15	0	0	0	0	509	567	0	508	39	28	
0	0	0	0	0	508	565	0	517	39	29	
1	0	0	0	0	505	566	0	533	39	29	
2	0	0	0	0	508	567	0	531	39	27	
3	0	0	0	0	504	564	0	519	39	24	
4	0	0	0	0	500	561	0	504	39	22	
5	0	0	0	0	508	556	0	492	39	23	
6	0	0	0	0	512	551	0	488	39	25	
7	0	0	0	0	507	550	0	487	39	27	
8	0	0	0	0	504	550	0	473	39	29	
9	0	0	0	0	514	547	0	470	39	29	
10	0	0	0	0	508	544	0	482	39	28	
11	0	0	0	0	511	543	0	506	39	25	
12	0	0	0	0	503	542	0	513	39	23	
13	0	0	0	0	510	542	0	510	39	22	
14	0	0	0	0	506	545	0	520	39	24	
15	0	0	0	0	507	546	0	531	39	27	
0	0	0	0	0	511	543	0	524	39	28	
1	0	0	0	0	512	534	0	514	39	30	
2	0	0	0	0	508	529	0	504	39	29	
3	0	0	0	0	509	523	0	496	39	26	
4	0	0	0	0	501	526	0	488	39	23	
5	0	0	0	0	516	531	0	486	39	22	
6	0	0	0	0	505	524	0	484	39	23	
7	0	0	0	0	508	509	0	483	39	26	
8	0	0	0	0	514	499	0	482	39	28	
9	0	0	0	0	512	488	0	493	39	29	
10	0	0	0	0	508	491	0	518	39	29	
11	0	0	0	0	511	499	0	523	39	27	
12	0	0	0	0	501	506	0	517	39	24	
13	0	0	0	0	508	499	0	519	39	22	
14	0	0	0	0	507	478	0	515	39	23	
15	0	0	0	0	508	467	0	515	39	25	
0	0	0	0	0	502	464	0	534	39	27	
1	0	0	0	0	504	454	0	539	39	29	
2	0	0	0	0	511	441	0	548	39	29	
3	0	0	0	0	510	440	0	519	39	28	
4	0	0	0	0	509	448	0	508	39	25	
5	0	0	0	0	510	455	0	500	39	22	
6	0	0	0	0	511	450	0	494	39	22	
7	0	0	0	0	512	450	0	488	39	24	
8	0	0	0	0	506	453	0	497	39	27	
9	0	0	0	0	500	459	0	515	39	28	
10	0	0	0	0	510	462	0	533	39	30	
11	0	0	0	0	505	458	0	513	39	29	
12	0	0	0	0	510	455	0	503	39	26	
13	0	0	0	0	508	456	0	495	39	23	
14	0	0	0	0	508	451	0	490	39	22	
15	0	0	0	0	506	451	0	487	39	23	
0	0	0	0	0	506	457	0	484	39	26	
1	0	0	0	0	509	460	0	499	39	28	
2	0	0	0	0	515	466	0	521	39	29	
3	0	0	0	0	518	469	0	523	39	29	
4	0	0	0	0	509	470	0	516	39	27	
5	0	0	0	0	507	463	0	508	39	24	
6	0	0	0	0	500	451	0	501	39	22	
7	0	0	0	0	506	440	0	505	39	23	
8	0	0	0	0	512	434	0	521	39	25	
9	0	0	0	0	503	435	0	520	39	27	
10	0	0	0	0	504	437	0	513	39	29	
11	0	0	0	0	508	439	0	505	39	29	
12	0	0	0	0	512	442	0	505	39	28	
13	0	0	0	0	501	449	0	508	39	25	
14	0	0	0	0	504	453	0	506	39	23	
15	0	0	0	0	510	446	0	503	39	22	
0	0	0	0	0	511	443	0	499	39	24	
1	0	0	0	0	513	442	0	509	39	27	
2	0	0	0	0	509	445	0	530	39	29	
3	0	0	0	0	508	437	0	532	39	30	
4	0	0	0	0	506	436	0	526	39	29	
5	0	0	0	0	510	440	0	515	39	26	
6	0	0	0	0	508	444	0	506	39	23	
7	0	0	0	0	511	445	0	501	39	22	
8	0	0	0	0	508	443	0	497	39	24	
9	0	0	0	0	506	446	0	494	39	26	
10	0	0	0	0	509	453	0	510	39	28	
11	0	0	0	0	503	455	0	531	39	29	
12	0	0	0	0	510	456	0	534	39	29	
13	0	0	0	0	502	457	0	529	39	27	
14	0	0	0	0	506	456	0	541	39	24	
15	0	0	0	0	509	455	0	543	39	22	
0	0	0	0	0	513	455	0	534	39	23	
1	0	0	0	0	513	459	0	519	39	25	
2	0	0	0	0	504	463	0	509	39	27	
3	0	0	0	0	509	466	0	501	39	29	
4	0	0	0	0	510	466	0	495	39	29	
5	0	0	0	0	507	469	0	490	39	28	
6	0	0	0	0	512	471	0	489	39	25	
7	0	0	0	0	511	469	0	489	39	22	
8	0	0	0	0	507	467	0	488	39	22	
9	0	0	0	0	514	467	0	503	39	24	
10	0	0	0	0	505	468	0	524	39	27	
11	0	0	0	0	511	468	0	527	39	29	
12	0	0	0	0	498	472	0	520	39	30	
13	0	0	0	0	505	473	0	510	39	29	
14	0	0	0	0	510	475	0	512	39	26	
15	0	0	0	0	507	476	0	518	39	23	
0	0	0	0	0	506	475	0	536	39	22	
1	0	0	0	0	507	475	0	535	39	24	
2	0	0	0	0	509	474	0	524	39	26	
3	0	0	0	0	505	474	0	514	39	28	
4	0	0	0	0	507	469	0	503	39	29	
5	0	0	0	0	506	465	0	497	39	29	
6	0	0	0	0	510	466	0	492	39	27	
7	0	0	0	0	504	466	0	487	39	24	
8	0	0	0	0	511	470	0	485	39	22	
9	0	0	0	0	516	478	0	499	39	23	
10	0	0	0	0	506	487	0	517	39	25	
11	0	0	0	0	496	487	0	522	39	27	
12	0	0	0	0	511	481	0	516	39	29	
13	0	0	0	0	512	480	0	523	39	29	
14	0	0	0	0	512	480	0	532	39	28	
15	0	0	0	0	507	482	0	531	39	25	
0	0	0	0	0	505	486	0	543	39	22	
1	0	0	0	0	511	486	0	544	39	22	
2	0	0	0	0	504	482	0	528	39	24	
3	0	0	0	0	513	478	0	513	39	27	
4	0	0	0	0	510	476	0	501	39	29	
5	0	0	0	0	504	476	0	492	39	30	
6	0	0	0	0	508	476	0	486	39	28	
7	0	0	0	0	510	474	0	482	39	26	
8	0	0	0	0	508	472	0	491	39	23	
9	0	0	0	0	513	475	0	510	39	22	
10	0	0	0	0	504	479	0	512	39	24	
11	0	0	0	0	504	483	0	510	39	26	
12	0	0	0	0	510	483	0	512	39	28	
13	0	0	0	0	505	483	0	511	39	29	
14	0	0	0	0	507	484	0	504	39	29	
15	0	0	0	0	509	487	0	498	39	27	
0	0	0	0	0	511	487	0	494	39	24	
1	0	0	0	0	508	488	0	486	39	22	
2	0	0	0	0	504	490	0	495	39	23	
3	0	0	0	0	505	493	0	517	39	25	
4	0	0	0	0	505	493	0	522	39	27	
5	0	0	0	0	507	492	0	516	39	29	
6	0	0	0	0	508	489	0	505	39	29	
7	0	0	0	0	503	492	0	496	39	28	
8	0	0	0	0	512	497	0	491	39	25	
9	0	0	0	0	510	498	0	490	39	22	
10	0	0	0	0	509	497	0	509	39	22	
11	0	0	0	0	508	497	0	522	39	24	
12	0	0	0	0	511	491	0	522	39	27	
13	0	0	0	0	510	478	0	516	39	29	
14	0	0	0	0	510	471	0	508	39	30	
15	0	0	0	0	509	475	0	501	39	28	
0	0	0	0	0	509	480	0	510	39	26	
1	0	0	0	0	509	475	0	520	39	23	
2	0	0	0	0	503	463	0	519	39	22	
3	0	0	0	0	508	455	0	512	39	24	
4	0	0	0	0	507	460	0	501	39	26	
5	0	0	0	0	516	474	0	492	39	28	
6	0	0	0	0	508	483	0	487	39	29	
7	0	0	0	0	515	492	0	481	39	29	
8	0	0	0	0	509	494	0	480	39	27	
9	0	0	0	0	503	481	0	498	39	24	
10	0	0	0	0	504	470	0	515	39	22	
11	0	0	0	0	507	466	0	513	39	23	
12	0	0	0	0	507	474	0	502	39	25	
13	0	0	0	0	508	480	0	493	39	27	
14	0	0	0	0	504	484	0	486	39	29	
15	0	0	0	0	508	493	0	476	39	29	
0	0	0	0	0	508	493	0	467	39	28	
1	0	0	0	0	511	479	0	469	39	25	
2	0	0	0	0	512	479	0	460	39	22	
3	0	0	0	0	509	482	0	459	39	22	
4	0	0	0	0	506	479	0	459	39	24	
5	0	0	0	0	504	478	0	473	39	27	
6	0	0	0	0	509	484	0	496	39	29	
7	0	0	0	0	511	487	0	503	39	30	
8	0	0	0	0	514	487	0	520	39	28	
9	0	0	0	0	505	491	0	529	39	26	
10	0	0	0	0	507	495	0	519	39	23	
11	0	0	0	0	506	499	0	506	39	22	
12	0	0	0	0	507	500	0	493	39	24	
13	0	0	0	0	511	497	0	482	39	26	
14	0	0	0	0	507	493	0	474	39	28	
15	0	0	0	0	511	491	0	469	39	29	
0	0	0	0	0	514	488	0	473	39	29	
1	0	0	0	0	505	484	0	491	39	27	
2	0	0	0	0	511	486	0	496	39	24	
3	0	0	0	0	501	487	0	494	39	22	
4	0	0	0	0	504	489	0	485	39	23	
5	0	0	0	0	516	493	0	480	39	25	
6	0	0	0	0	508	494	0	477	39	27	
7	0	0	0	0	502	497	0	473	39	29	
8	0	0	0	0	503	507	0	492	39	29	
9	0	0	0	0	511	513	0	498	39	28	
10	0	0	0	0	510	513	0	501	39	25	
11	0	0	0	0	511	507	0	520	39	22	
12	0	0	0	0	507	503	0	523	39	22	
13	0	0	0	0	509	503	0	512	39	24	
14	0	0	0	0	508	505	0	510	39	27	
15	0	0	0	0	508	506	0	525	39	29	
0	0	0	0	0	517	506	0	524	39	29	
1	0	0	0	0	509	504	0	513	39	28	
2	0	0	0	0	504	504	0	498	39	26	
3	0	0	0	0	503	505	0	486	39	23	
4	0	0	0	0	500	507	0	480	39	22	
5	0	0	0	0	510	507	0	477	39	24	
6	0	0	0	0	512	508	0	475	39	26	
7	0	0	0	0	502	504	0	473	39	28	
8	0	0	0	0	515	506	0	484	39	29	
9	0	0	0	0	508	510	0	502	39	29	
10	0	0	0	0	509	512	0	508	39	27	
11	0	0	0	0	504	513	0	511	39	24	
12	0	0	0	0	501	510	0	498	39	22	
13	0	0	0	0	512	509	0	492	39	23	
14	0	0	0	0	512	509	0	486	39	25	
15	0	0	0	0	509	508	0	484	39	28	
0	0	0	0	0	510	505	0	483	39	29	
1	0	0	0	0	501	504	0	498	39	29	
2	0	0	0	0	515	506	0	518	39	28	
3	0	0	0	0	511	508	0	521	39	25	
4	0	0	0	0	504	507	0	514	39	22	
5	0	0	0	0	499	503	0	506	39	22	
6	0	0	0	0	511	495	0	497	39	25	
7	0	0	0	0	511	492	0	502	39	27	
8	0	0	0	0	504	497	0	518	39	29	
9	0	0	0	0	504	499	0	516	39	30	
10	0	0	0	0	514	494	0	509	39	28	
11	0	0	0	0	513	491	0	511	39	26	
12	0	0	0	0	509	496	0	507	39	23	
13	0	0	0	0	503	508	0	502	39	22	
14	0	0	0	0	510	512	0	495	39	24	
15	0	0	0	0	504	510	0	488	39	26	
0	0	0	0	0	507	510	0	482	39	28	
1	0	0	0	0	508	498	0	487	39	29	
2	0	0	0	0	504	476	0	486	39	29	
3	0	0	0	0	508	465	0	509	39	27	
4	0	0	0	0	516	474	0	517	39	24	
5	0	0	0	0	506	489	0	513	39	22	
6	0	0	0	0	503	503	0	507	39	23	
7	0	0	0	0	509	514	0	499	39	25	
8	0	0	0	0	512	512	0	496	39	28	
9	0	0	0	0	513	509	0	512	39	29	
10	0	0	0	0	505	513	0	526	39	29	
11	0	0	0	0	515	515	0	524	39	28	
12	0	0	0	0	512	506	0	515	39	25	
13	0	0	0	0	511	489	0	504	39	22	
14	0	0	0	0	505	478	0	496	39	22	
15	0	0	0	0	501	479	0	487	39	25	
0	0	0	0	0	505	480	0	492	39	27	
1	0	0	0	0	511	478	0	508	39	29	
2	0	0	0	0	506	474	0	510	39	30	
3	0	0	0	0	509	477	0	505	39	28	
4	0	0	0	0	505	485	0	497	39	26	
5	0	0	0	0	512	491	0	493	39	23	
6	0	0	0	0	508	497	0	487	39	22	
7	0	0	0	0	508	499	0	483	39	24	
8	0	0	0	0	513	501	0	482	39	26	
9	0	0	0	0	509	508	0	497	39	28	
10	0	0	0	0	506	514	0	518	39	29	
11	0	0	0	0	503	522	0	526	39	29	
12	0	0	0	0	503	527	0	546	39	27	
13	0	0	0	0	505	523	0	549	39	24	
14	0	0	0	0	502	517	0	553	39	22	
15	0	0	0	0	508	513	0	558	39	23	
0	0	0	0	0	507	511	0	551	39	25	
1	0	0	0	0	510	510	0	544	39	28	
2	0	0	0	0	515	510	0	531	39	29	
3	0	0	0	0	511	515	0	520	39	29	
4	0	0	0	0	509	518	0	508	39	28	
5	0	0	0	0	498	521	0	501	39	25	
6	0	0	0	0	510	522	0	498	39	22	
7	0	0	0	0	513	519	0	495	39	22	
8	0	0	0	0	512	517	0	493	39	25	
9	0	0	0	0	504	518	0	492	39	27	
10	0	0	0	0	504	519	0	494	39	29	
11	0	0	0	0	509	516	0	496	39	30	
12	0	0	0	0	505	516	0	520	39	28	
13	0	0	0	0	507	523	0	533	39	26	
14	0	0	0	0	513	523	0	545	39	23	
15	0	0	0	0	507	517	0	562	39	22	
0	0	0	0	0	516	516	0	558	39	24	
1	0	0	0	0	504	515	0	544	39	26	
2	0	0	0	0	504	517	0	531	39	28	
3	0	0	0	0	508	514	0	519	39	29	
4	0	0	0	0	512	510	0	512	39	29	
5	0	0	0	0	501	509	0	507	39	27	
6	0	0	0	0	501	507	0	503	39	24	
7	0	0	0	0	511	503	0	500	39	22	
8	0	0	0	0	509	497	0	496	39	23	
9	0	0	0	0	511	500	0	491	39	25	
10	0	0	0	0	508	499	0	488	39	28	
11	0	0	0	0	507	494	0	490	39	29	
12	0	0	0	0	516	494	0	485	39	29	
13	0	0	0	0	509	500	0	486	39	28	
14	0	0	0	0	512	500	0	487	39	25	
15	0	0	0	0	504	503	0	485	39	22	
0	0	0	0	0	511	505	0	481	39	22	
1	0	0	0	0	506	506	0	480	39	25	
2	0	0	0	0	512	503	0	480	39	27	
3	0	0	0	0	504	507	0	491	39	29	
4	0	0	0	0	500	508	0	518	39	30	
5	0	0	0	0	506	508	0	529	39	28	
6	0	0	0	0	511	509	0	544	39	26	
7	0	0	0	0	512	509	0	558	39	23	
8	0	0	0	0	504	513	0	557	39	22	
9	0	0	0	0	513	516	0	567	39	24	
10	0	0	0	0	511	517	0	564	39	26	
11	0	0	0	0	510	510	0	551	39	28	
12	0	0	0	0	508	508	0	535	39	29	
13	0	0	0	0	508	512	0	523	39	29	
14	0	0	0	0	504	518	0	514	39	27	
15	0	0	0	0	508	525	0	508	39	24	
0	0	0	0	0	510	522	0	504	39	22	
1	0	0	0	0	508	515	0	501	39	23	
2	0	0	0	0	508	520	0	507	39	26	
3	0	0	0	0	510	519	0	534	39	28	
4	0	0	0	0	508	513	0	543	39	29	
5	0	0	0	0	508	508	0	538	39	29	
6	0	0	0	0	505	502	0	540	39	28	
7	0	0	0	0	510	498	0	554	39	25	
8	0	0	0	0	505	499	0	551	39	22	
9	0	0	0	0	512	505	0	541	39	22	
10	0	0	0	0	513	516	0	539	39	25	
11	0	0	0	0	510	519	0	532	39	27	
12	0	0	0	0	506	515	0	524	39	29	
13	0	0	0	0	508	503	0	518	39	30	
14	0	0	0	0	505	491	0	511	39	28	
15	0	0	0	0	506	492	0	504	39	26	
0	0	0	0	0	508	499	0	502	39	23	
1	0	0	0	0	504	504	0	508	39	22	
2	0	0	0	0	514	503	0	532	39	24	
3	0	0	0	0	516	508	0	542	39	26	
4	0	0	0	0	507	510	0	540	39	28	
5	0	0	0	0	509	509	0	530	39	29	
6	0	0	0	0	503	507	0	522	39	29	
7	0	0	0	0	503	510	0	518	39	27	
8	0	0	0	0	510	514	0	532	39	24	
9	0	0	0	0	510	517	0	542	39	22	
10	0	0	0	0	511	518	0	539	39	23	
11	0	0	0	0	510	516	0	531	39	26	
12	0	0	0	0	509	515	0	523	39	28	
13	0	0	0	0	507	516	0	515	39	29	
14	0	0	0	0	503	517	0	511	39	29	
15	0	0	0	0	508	516	0	509	39	27	
0	0	0	0	0	508	513	0	512	39	24	
1	0	0	0	0	512	512	0	533	39	22	
2	0	0	0	0	510	514	0	541	39	22	
3	0	0	0	0	510	515	0	538	39	25	
4	0	0	0	0	512	513	0	530	39	27	
5	0	0	0	0	510	511	0	521	39	29	
6	0	0	0	0	507	508	0	516	39	30	
7	0	0	0	0	511	509	0	511	39	28	
8	0	0	0	0	504	511	0	522	39	25	
9	0	0	0	0	505	510	0	535	39	23	
10	0	0	0	0	512	511	0	541	39	22	
11	0	0	0	0	507	514	0	559	39	24	
12	0	0	0	0	506	516	0	562	39	26	
13	0	0	0	0	498	522	0	552	39	28	
14	0	0	0	0	507	526	0	551	39	29	
15	0	0	0	0	508	524	0	564	39	29	
0	0	0	0	0	508	520	0	563	39	26	
1	0	0	0	0	508	513	0	551	39	24	
2	0	0	0	0	518	506	0	537	39	22	
3	0	0	0	0	512	499	0	524	39	23	
4	0	0	0	0	505	503	0	516	39	26	
5	0	0	0	0	507	508	0	510	39	28	
6	0	0	0	0	517	515	0	505	39	29	
7	0	0	0	0	512	517	0	502	39	29	
8	0	0	0	0	501	516	0	512	39	27	
9	0	0	0	0	505	513	0	529	39	24	
10	0	0	0	0	508	515	0	534	39	22	
11	0	0	0	0	511	517	0	530	39	22	
12	0	0	0	0	504	517	0	522	39	25	
13	0	0	0	0	503	521	0	515	39	27	
14	0	0	0	0	503	524	0	510	39	29	
15	0	0	0	0	510	522	0	523	39	29	
0	0	0	0	0	513	518	0	505	39	28	
1	0	0	0	0	513	511	0	518	39	25	
2	0	0	0	0	503	515	0	539	39	23	
3	0	0	0	0	507	516	0	541	39	22	
4	0	0	0	0	505	513	0	536	39	24	
5	0	0	0	0	512	508	0	528	39	26	
6	0	0	0	0	511	507	0	520	39	28	
7	0	0	0	0	511	507	0	525	39	29	
8	0	0	0	0	509	509	0	537	39	29	
9	0	0	0	0	507	511	0	538	39	26	
10	0	0	0	0	511	512	0	553	39	23	
11	0	0	0	0	504	512	0	559	39	22	
12	0	0	0	0	506	515	0	551	39	23	
13	0	0	0	0	511	516	0	543	39	26	
14	0	0	0	0	504	520	0	541	39	28	
15	0	0	0	0	508	527	0	544	39	29	
0	0	0	0	0	504	529	0	551	39	29	
1	0	0	0	0	511	527	0	559	39	27	
2	0	0	0	0	501	519	0	556	39	24	
3	0	0	0	0	513	520	0	566	39	22	
4	0	0	0	0	514	518	0	561	39	22	
5	0	0	0	0	505	502	0	562	39	25	
6	0	0	0	0	510	490	0	563	39	27	
7	0	0	0	0	510	496	0	555	39	29	
8	0	0	0	0	509	508	0	557	39	29	
9	0	0	0	0	507	506	0	551	39	28	
10	0	0	0	0	508	502	0	535	39	25	
11	0	0	0	0	506	507	0	518	39	23	
12	0	0	0	0	508	513	0	504	39	22	
13	0	0	0	0	505	519	0	494	39	24	
14	0	0	0	0	517	519	0	502	39	26	
15	0	0	0	0	509	516	0	481	39	28	
0	0	0	0	0	512	515	0	488	39	29	
1	0	0	0	0	510	515	0	506	39	29	
2	0	0	0	0	508	517	0	509	39	26	
3	0	0	0	0	508	521	0	504	39	23	
4	0	0	0	0	509	524	0	496	39	22	
5	0	0	0	0	506	524	0	492	39	23	
6	0	0	0	0	504	515	0	487	39	26	
7	0	0	0	0	510	513	0	485	39	28	
8	0	0	0	0	514	518	0	481	39	29	
9	0	0	0	0	509	520	0	496	39	29	
10	0	0	0	0	510	523	0	514	39	27	
11	0	0	0	0	507	513	0	516	39	24	
12	0	0	0	0	506	503	0	523	39	22	
13	0	0	0	0	505	500	0	514	39	23	
14	0	0	0	0	508	506	0	506	39	25	
15	0	0	0	0	509	513	0	511	39	27	
0	0	0	0	0	508	518	0	529	39	29	
1	0	0	0	0	507	520	0	533	39	29	
2	0	0	0	0	507	523	0	547	39	28	
3	0	0	0	0	506	521	0	552	39	25	
4	0	0	0	0	509	518	0	541	39	23	
5	0	0	0	0	503	516	0	526	39	22	
6	0	0	0	0	509	519	0	510	39	24	
7	0	0	0	0	510	514	0	498	39	26	
8	0	0	0	0	511	506	0	503	39	28	
9	0	0	0	0	507	497	0	511	39	29	
10	0	0	0	0	507	499	0	509	39	29	
11	0	0	0	0	505	510	0	513	39	26	
12	0	0	0	0	507	517	0	497	39	23	
13	0	0	0	0	509	521	0	488	39	22	
14	0	0	0	0	516	528	0	485	39	23	
15	0	0	0	0	510	531	0	483	39	26	
0	0	0	0	0	508	533	0	481	39	28	
1	0	0	0	0	500	536	0	478	39	29	
2	0	0	0	0	508	539	0	494	39	29	
3	0	0	0	0	505	541	0	516	39	27	
4	0	0	0	0	512	536	0	522	39	24	
5	0	0	0	0	506	527	0	521	39	22	
6	0	0	0	0	503	524	0	535	39	23	
7	0	0	0	0	509	527	0	536	39	25	
8	0	0	0	0	511	527	0	524	39	27	
9	0	0	0	0	507	529	0	518	39	29	
10	0	0	0	0	505	532	0	518	39	29	
11	0	0	0	0	510	532	0	510	39	28	
12	0	0	0	0	504	528	0	501	39	25	
13	0	0	0	0	514	521	0	495	39	23	
14	0	0	0	0	509	521	0	489	39	22	
15	0	0	0	0	504	521	0	486	39	24	
0	0	0	0	0	509	530	0	484	39	26	
1	0	0	0	0	511	538	0	483	39	28	
2	0	0	0	0	508	541	0	481	39	29	
3	0	0	0	0	511	540	0	483	39	29	
4	0	0	0	0	509	538	0	483	39	26	
5	0	0	0	0	508	531	0	483	39	23	
6	0	0	0	0	508	526	0	483	39	22	
7	0	0	0	0	512	530	0	481	39	23	
8	0	0	0	0	505	529	0	477	39	26	
9	0	0	0	0	509	528	0	471	39	28	
10	0	0	0	0	509	529	0	471	39	29	
11	0	0	0	0	509	530	0	472	39	29	
12	0	0	0	0	511	529	0	475	39	27	
13	0	0	0	0	510	527	0	477	39	24	
14	0	0	0	0	512	528	0	480	39	22	
15	0	0	0	0	509	534	0	481	39	23	
0	0	0	0	0	506	532	0	478	39	25	
1	0	0	0	0	511	528	0	481	39	27	
2	0	0	0	0	502	524	0	480	39	29	
3	0	0	0	0	512	513	0	485	39	29	
4	0	0	0	0	510	507	0	508	39	28	
5	0	0	0	0	503	505	0	529	39	25	
6	0	0	0	0	509	504	0	530	39	23	
7	0	0	0	0	510	504	0	523	39	22	
8	0	0	0	0	511	502	0	512	39	24	
9	0	0	0	0	504	503	0	524	39	26	
10	0	0	0	0	499	501	0	535	39	28	
11	0	0	0	0	505	497	0	544	39	29	
12	0	0	0	0	506	499	0	561	39	29	
13	0	0	0	0	508	503	0	561	39	26	
14	0	0	0	0	513	508	0	570	39	23	
15	0	0	0	0	508	515	0	569	39	22	
0	0	0	0	0	508	516	0	566	39	23	
1	0	0	0	0	504	506	0	572	39	26	
2	0	0	0	0	510	494	0	564	39	28	
3	0	0	0	0	510	493	0	558	39	29	
4	0	0	0	0	512	497	0	544	39	29	
5	0	0	0	0	508	504	0	530	39	27	
6	0	0	0	0	508	502	0	517	39	24	
7	0	0	0	0	512	495	0	509	39	22	
8	0	0	0	0	507	490	0	502	39	23	
9	0	0	0	0	510	480	0	498	39	25	
10	0	0	0	0	505	473	0	507	39	27	
11	0	0	0	0	508	483	0	531	39	29	
12	0	0	0	0	506	493	0	538	39	29	
13	0	0	0	0	502	493	0	535	39	28	
14	0	0	0	0	506	494	0	526	39	25	
15	0	0	0	0	508	500	0	516	39	23	
0	0	0	0	0	510	499	0	514	39	22	
1	0	0	0	0	512	495	0	531	39	24	
2	0	0	0	0	502	486	0	539	39	27	
3	0	0	0	0	512	482	0	533	39	28	
4	0	0	0	0	508	477	0	524	39	30	
5	0	0	0	0	504	480	0	517	39	29	
6	0	0	0	0	502	485	0	511	39	26	
7	0	0	0	0	505	483	0	505	39	23	
8	0	0	0	0	511	487	0	516	39	22	
9	0	0	0	0	508	494	0	529	39	23	
10	0	0	0	0	506	495	0	536	39	26	
11	0	0	0	0	506	496	0	554	39	28	
12	0	0	0	0	506	496	0	557	39	29	
13	0	0	0	0	509	497	0	548	39	29	
14	0	0	0	0	511	493	0	545	39	27	
15	0	0	0	0	503	495	0	559	39	24	
0	0	0	0	0	508	503	0	557	39	22	
1	0	0	0	0	510	509	0	544	39	23	
2	0	0	0	0	510	504	0	528	39	25	
3	0	0	0	0	507	498	0	515	39	27	
4	0	0	0	0	509	497	0	506	39	29	
5	0	0	0	0	505	501	0	497	39	29	
6	0	0	0	0	510	508	0	492	39	28	
7	0	0	0	0	508	514	0	489	39	25	
8	0	0	0	0	506	515	0	497	39	23	
9	0	0	0	0	504	512	0	513	39	22	
10	0	0	0	0	504	507	0	516	39	24	
11	0	0	0	0	510	502	0	511	39	27	
12	0	0	0	0	518	498	0	513	39	28	
13	0	0	0	0	510	496	0	498	39	30	
14	0	0	0	0	511	496	0	491	39	29	
15	0	0	0	0	505	503	0	488	39	26	
0	0	0	0	0	508	509	0	485	39	23	
1	0	0	0	0	508	518	0	499	39	22	
2	0	0	0	0	510	531	0	518	39	23	
3	0	0	0	0	511	545	0	520	39	26	
4	0	0	0	0	505	561	0	516	39	28	
5	0	0	0	0	512	577	0	506	39	29	
6	0	0	0	0	504	592	0	498	39	29	
7	0	0	0	0	507	610	0	503	39	27	
8	0	0	0	0	510	633	0	517	39	24	
9	0	0	0	0	508	654	0	518	39	22	
10	0	0	0	0	509	671	0	511	39	23	
11	0	0	0	0	506	685	0	503	39	25	
12	0	0	0	0	506	699	0	493	39	27	
13	0	0	0	0	508	715	0	493	39	29	
14	0	0	0	0	505	731	0	499	39	29	
15	0	0	0	0	511	743	0	498	39	28	
0	0	0	0	0	505	759	0	513	39	25	
1	0	0	0	0	511	775	0	529	39	23	
2	0	0	0	0	503	782	0	531	39	22	
3	0	0	0	0	505	784	0	520	39	24	
4	0	0	0	0	511	795	0	510	39	27	
5	0	0	0	0	515	809	0	500	39	28	
6	0	0	0	0	506	816	0	495	39	30	
7	0	0	0	0	504	815	0	491	39	29	
8	0	0	0	0	505	811	0	490	39	26	
9	0	0	0	0	512	808	0	508	39	23	
10	0	0	0	0	500	803	0	524	39	22	
11	0	0	0	0	507	795	0	524	39	23	
12	0	0	0	0	519	779	0	518	39	26	
13	0	0	0	0	512	760	0	510	39	28	
14	0	0	0	0	508	740	0	501	39	29	
15	0	0	0	0	502	719	0	494	39	29	
0	0	0	0	0	506	692	0	500	39	27	
1	0	0	0	0	504	659	0	515	39	24	
2	0	0	0	0	511	633	0	517	39	22	
3	0	0	0	0	504	616	0	511	39	23	
4	0	0	0	0	512	600	0	518	39	25	
5	0	0	0	0	510	573	0	495	39	27	
6	0	0	0	0	511	541	0	489	39	29	
7	0	0	0	0	508	512	0	487	39	29	
8	0	0	0	0	511	490	0	485	39	28	
9	0	0	0	0	509	469	0	500	39	25	
10	0	0	0	0	506	452	0	520	39	22	
11	0	0	0	0	504	441	0	523	39	22	
12	0	0	0	0	510	425	0	518	39	24	
13	0	0	0	0	515	403	0	519	39	27	
14	0	0	0	0	507	387	0	523	39	28	
15	0	0	0	0	509	389	0	516	39	30	
0	0	0	0	0	506	400	0	533	39	29	
1	0	0	0	0	507	407	0	533	39	26	
2	0	0	0	0	507	409	0	524	39	23	
3	0	0	0	0	513	398	0	512	39	22	
4	0	0	0	0	509	384	0	500	39	23	
5	0	0	0	0	508	381	0	494	39	26	
6	0	0	0	0	503	385	0	486	39	28	
7	0	0	0	0	509	387	0	479	39	29	
8	0	0	0	0	508	386	0	476	39	29	
9	0	0	0	0	518	391	0	486	39	27	
10	0	0	0	0	509	402	0	509	39	24	
11	0	0	0	0	508	407	0	515	39	22	
12	0	0	0	0	508	399	0	511	39	23	
13	0	0	0	0	507	396	0	503	39	25	
14	0	0	0	0	505	400	0	496	39	27	
15	0	0	0	0	509	405	0	497	39	29	
0	0	0	0	0	506	408	0	513	39	29	
1	0	0	0	0	509	408	0	520	39	28	
2	0	0	0	0	513	414	0	515	39	25	
3	0	0	0	0	510	421	0	507	39	22	
4	0	0	0	0	502	424	0	500	39	22	
5	0	0	0	0	504	419	0	496	39	24	
6	0	0	0	0	503	419	0	492	39	27	
7	0	0	0	0	508	428	0	490	39	28	
8	0	0	0	0	516	430	0	501	39	29	
9	0	0	0	0	507	432	0	519	39	29	
10	0	0	0	0	509	435	0	524	39	26	
11	0	0	0	0	511	436	0	534	39	23	
12	0	0	0	0	508	437	0	525	39	22	
13	0	0	0	0	512	440	0	520	39	23	
14	0	0	0	0	506	442	0	514	39	26	
15	0	0	0	0	509	443	0	507	39	28	
0	0	0	0	0	508	444	0	503	39	29	
1	0	0	0	0	513	450	0	498	39	29	
2	0	0	0	0	507	455	0	506	39	27	
3	0	0	0	0	510	457	0	527	39	24	
4	0	0	0	0	504	461	0	531	39	22	
5	0	0	0	0	511	460	0	524	39	23	
6	0	0	0	0	507	457	0	515	39	25	
7	0	0	0	0	502	459	0	506	39	27	
8	0	0	0	0	510	462	0	505	39	29	
9	0	0	0	0	501	464	0	522	39	29	
10	0	0	0	0	505	465	0	529	39	28	
11	0	0	0	0	508	466	0	553	39	25	
12	0	0	0	0	511	467	0	552	39	22	
13	0	0	0	0	511	467	0	550	39	22	
14	0	0	0	0	507	469	0	560	39	24	
15	0	0	0	0	511	471	0	551	39	27	
0	0	0	0	0	501	471	0	533	39	29	
1	0	0	0	0	507	468	0	516	39	30	
2	0	0	0	0	512	470	0	504	39	29	
3	0	0	0	0	508	474	0	502	39	26	
4	0	0	0	0	513	477	0	491	39	23	
5	0	0	0	0	509	470	0	484	39	22	
6	0	0	0	0	508	458	0	483	39	24	
7	0	0	0	0	503	455	0	484	39	26	
8	0	0	0	0	516	458	0	486	39	28	
9	0	0	0	0	509	466	0	507	39	29	
10	0	0	0	0	504	470	0	523	39	29	
11	0	0	0	0	505	467	0	521	39	27	
12	0	0	0	0	507	458	0	522	39	24	
13	0	0	0	0	502	459	0	521	39	22	
14	0	0	0	0	511	469	0	514	39	23	
15	0	0	0	0	513	472	0	521	39	25	
0	0	0	0	0	506	472	0	534	39	27	
1	0	0	0	0	507	480	0	528	39	29	
2	0	0	0	0	510	483	0	517	39	29	
3	0	0	0	0	508	484	0	505	39	28	
4	0	0	0	0	506	484	0	495	39	25	
5	0	0	0	0	505	487	0	488	39	22	
6	0	0	0	0	509	486	0	487	39	22	
7	0	0	0	0	511	490	0	487	39	24	
8	0	0	0	0	509	493	0	505	39	27	
9	0	0	0	0	511	492	0	518	39	29	
10	0	0	0	0	509	492	0	520	39	30	
11	0	0	0	0	511	493	0	514	39	28	
12	0	0	0	0	511	497	0	506	39	26	
13	0	0	0	0	510	497	0	500	39	23	
14	0	0	0	0	510	492	0	495	39	22	
15	0	0	0	0	503	490	0	491	39	24	
0	0	0	0	0	508	487	0	496	39	26	
1	0	0	0	0	505	484	0	518	39	28	
2	0	0	0	0	512	483	0	539	39	29	
3	0	0	0	0	511	490	0	522	39	29	
4	0	0	0	0	504	494	0	512	39	27	
5	0	0	0	0	505	497	0	506	39	24	
6	0	0	0	0	506	488	0	501	39	22	
7	0	0	0	0	513	482	0	499	39	23	
8	0	0	0	0	513	475	0	510	39	25	
9	0	0	0	0	510	474	0	523	39	27	
10	0	0	0	0	507	479	0	524	39	29	
11	0	0	0	0	510	481	0	519	39	29	
12	0	0	0	0	508	485	0	524	39	28	
13	0	0	0	0	509	488	0	518	39	25	
14	0	0	0	0	501	492	0	510	39	22	
15	0	0	0	0	505	497	0	504	39	22	
0	0	0	0	0	510	501	0	499	39	24	
1	0	0	0	0	509	499	0	496	39	27	
2	0	0	0	0	509	492	0	491	39	29	
3	0	0	0	0	507	491	0	498	39	30	
4	0	0	0	0	509	491	0	521	39	28	
5	0	0	0	0	513	489	0	527	39	26	
6	0	0	0	0	510	487	0	521	39	23	
7	0	0	0	0	505	488	0	510	39	22	
8	0	0	0	0	507	491	0	510	39	24	
9	0	0	0	0	507	495	0	498	39	26	
10	0	0	0	0	515	500	0	515	39	28	
11	0	0	0	0	510	503	0	519	39	29	
12	0	0	0	0	508	502	0	512	39	29	
13	0	0	0	0	505	500	0	503	39	27	
14	0	0	0	0	502	498	0	495	39	24	
15	0	0	0	0	505	497	0	489	39	22	
0	0	0	0	0	508	499	0	502	39	23	
1	0	0	0	0	510	501	0	513	39	25	
2	0	0	0	0	512	503	0	511	39	27	
3	0	0	0	0	516	508	0	505	39	29	
4	0	0	0	0	504	515	0	499	39	29	
5	0	0	0	0	505	514	0	494	39	28	
6	0	0	0	0	504	517	0	489	39	25	
7	0	0	0	0	511	515	0	487	39	22	
8	0	0	0	0	505	506	0	492	39	22	
9	0	0	0	0	509	494	0	512	39	24	
10	0	0	0	0	502	492	0	520	39	27	
11	0	0	0	0	509	494	0	518	39	29	
12	0	0	0	0	510	500	0	518	39	30	
13	0	0	0	0	513	508	0	517	39	28	
14	0	0	0	0	504	513	0	512	39	26	
15	0	0	0	0	515	510	0	505	39	23	
0	0	0	0	0	508	504	0	498	39	22	
1	0	0	0	0	507	505	0	507	39	24	
2	0	0	0	0	504	510	0	528	39	26	
3	0	0	0	0	504	512	0	534	39	28	
4	0	0	0	0	503	513	0	526	39	29	
5	0	0	0	0	508	516	0	517	39	29	
6	0	0	0	0	509	523	0	509	39	27	
7	0	0	0	0	510	527	0	504	39	24	
8	0	0	0	0	508	530	0	503	39	22	
9	0	0	0	0	504	531	0	522	39	23	
10	0	0	0	0	500	531	0	549	39	25	
11	0	0	0	0	509	537	0	537	39	28	
12	0	0	0	0	512	543	0	531	39	29	
13	0	0	0	0	516	541	0	523	39	29	
14	0	0	0	0	510	542	0	516	39	28	
15	0	0	0	0	504	550	0	510	39	25	
0	0	0	0	0	511	547	0	516	39	22	
1	0	0	0	0	504	538	0	535	39	22	
2	0	0	0	0	512	525	0	540	39	25	
3	0	0	0	0	510	519	0	555	39	27	
4	0	0	0	0	509	520	0	564	39	29	
5	0	0	0	0	513	528	0	556	39	30	
6	0	0	0	0	508	539	0	551	39	28	
7	0	0	0	0	504	541	0	562	39	26	
8	0	0	0	0	509	541	0	559	39	23	
9	0	0	0	0	508	547	0	565	39	22	
10	0	0	0	0	500	545	0	573	39	24	
11	0	0	0	0	508	540	0	566	39	26	
12	0	0	0	0	511	539	0	555	39	28	
13	0	0	0	0	514	539	0	551	39	29	
14	0	0	0	0	509	540	0	541	39	29	
15	0	0	0	0	506	548	0	543	39	27	
0	0	0	0	0	511	554	0	560	39	24	
1	0	0	0	0	506	546	0	558	39	22	
2	0	0	0	0	511	542	0	549	39	23	
3	0	0	0	0	505	536	0	537	39	25	
4	0	0	0	0	501	545	0	527	39	28	
5	0	0	0	0	509	546	0	520	39	29	
6	0	0	0	0	507	543	0	518	39	29	
7	0	0	0	0	512	543	0	512	39	28	
8	0	0	0	0	511	548	0	509	39	25	
9	0	0	0	0	510	553	0	519	39	22	
10	0	0	0	0	507	559	0	543	39	22	
11	0	0	0	0	508	550	0	548	39	25	
12	0	0	0	0	511	545	0	542	39	27	
13	0	0	0	0	503	546	0	529	39	29	
14	0	0	0	0	507	551	0	521	39	30	
15	0	0	0	0	513	555	0	522	39	28	
0	0	0	0	0	503	555	0	539	39	26	
1	0	0	0	0	511	553	0	545	39	23	
2	0	0	0	0	511	554	0	542	39	22	
3	0	0	0	0	513	554	0	535	39	24	
4	0	0	0	0	507	553	0	527	39	26	
5	0	0	0	0	504	552	0	519	39	28	
6	0	0	0	0	514	551	0	515	39	29	
7	0	0	0	0	509	552	0	510	39	29	
8	0	0	0	0	507	553	0	517	39	27	
9	0	0	0	0	502	558	0	535	39	24	
10	0	0	0	0	511	564	0	537	39	22	
11	0	0	0	0	510	568	0	535	39	23	
12	0	0	0	0	500	570	0	534	39	25	
13	0	0	0	0	501	567	0	531	39	28	
14	0	0	0	0	512	559	0	524	39	29	
15	0	0	0	0	505	559	0	516	39	29	
0	0	0	0	0	508	563	0	510	39	28	
1	0	0	0	0	504	566	0	504	39	25	
2	0	0	0	0	505	566	0	515	39	22	
3	0	0	0	0	504	567	0	536	39	22	
4	0	0	0	0	510	566	0	542	39	25	
5	0	0	0	0	511	569	0	535	39	27	
6	0	0	0	0	509	568	0	523	39	29	
7	0	0	0	0	513	567	0	515	39	30	
8	0	0	0	0	506	560	0	515	39	28	
9	0	0	0	0	503	551	0	534	39	26	
10	0	0	0	0	511	552	0	543	39	23	
11	0	0	0	0	506	552	0	538	39	22	
12	0	0	0	0	504	552	0	530	39	24	
13	0	0	0	0	514	552	0	524	39	26	
14	0	0	0	0	509	553	0	516	39	28	
15	0	0	0	0	511	556	0	511	39	29	
0	0	0	0	0	508	555	0	524	39	29	
1	0	0	0	0	508	551	0	538	39	27	
2	0	0	0	0	513	547	0	540	39	24	
3	0	0	0	0	512	543	0	534	39	22	
4	0	0	0	0	512	542	0	530	39	23	
5	0	0	0	0	507	540	0	520	39	25	
6	0	0	0	0	507	539	0	516	39	28	
7	0	0	0	0	511	536	0	512	39	29	
8	0	0	0	0	511	535	0	511	39	29	
9	0	0	0	0	505	531	0	530	39	28	
10	0	0	0	0	511	524	0	547	39	25	
11	0	0	0	0	510	523	0	547	39	22	
12	0	0	0	0	499	524	0	545	39	22	
13	0	0	0	0	511	522	0	543	39	25	
14	0	0	0	0	506	523	0	536	39	27	
15	0	0	0	0	503	515	0	526	39	29	
0	0	0	0	0	510	504	0	526	39	30	
1	0	0	0	0	509	491	0	543	39	28	
2	0	0	0	0	508	481	0	544	39	26	
3	0	0	0	0	507	478	0	534	39	23	
4	0	0	0	0	505	472	0	523	39	22	
5	0	0	0	0	511	477	0	515	39	24	
6	0	0	0	0	505	480	0	508	39	26	
7	0	0	0	0	506	481	0	501	39	28	
8	0	0	0	0	505	480	0	499	39	29	
9	0	0	0	0	508	479	0	512	39	29	
10	0	0	0	0	510	481	0	531	39	27	
11	0	0	0	0	510	487	0	534	39	24	
12	0	0	0	0	509	491	0	528	39	22	
13	0	0	0	0	504	484	0	518	39	23	
14	0	0	0	0	510	476	0	505	39	25	
15	0	0	0	0	510	467	0	507	39	28	
0	0	0	0	0	504	456	0	520	39	29	
1	0	0	0	0	506	441	0	519	39	29	
2	0	0	0	0	498	435	0	512	39	28	
3	0	0	0	0	511	430	0	503	39	25	
4	0	0	0	0	507	436	0	503	39	22	
5	0	0	0	0	514	448	0	491	39	22	
6	0	0	0	0	515	451	0	484	39	25	
7	0	0	0	0	505	448	0	481	39	27	
8	0	0	0	0	512	447	0	480	39	29	
9	0	0	0	0	509	446	0	487	39	30	
10	0	0	0	0	511	442	0	510	39	28	
11	0	0	0	0	509	437	0	516	39	26	
12	0	0	0	0	508	440	0	523	39	23	
13	0	0	0	0	507	442	0	515	39	22	
14	0	0	0	0	504	442	0	509	39	24	
15	0	0	0	0	509	443	0	505	39	26	
0	0	0	0	0	500	441	0	523	39	28	
1	0	0	0	0	514	438	0	528	39	29	
2	0	0	0	0	510	442	0	518	39	29	
3	0	0	0	0	506	442	0	504	39	27	
4	0	0	0	0	503	438	0	497	39	24	
5	0	0	0	0	510	439	0	495	39	22	
6	0	0	0	0	514	446	0	489	39	23	
7	0	0	0	0	511	456	0	481	39	25	
8	0	0	0	0	500	462	0	477	39	28	
9	0	0	0	0	510	465	0	472	39	29	
10	0	0	0	0	507	466	0	472	39	29	
11	0	0	0	0	507	458	0	492	39	28	
12	0	0	0	0	505	439	0	505	39	25	
13	0	0	0	0	505	434	0	502	39	22	
14	0	0	0	0	513	442	0	500	39	22	
15	0	0	0	0	511	451	0	515	39	25	
0	0	0	0	0	507	459	0	516	39	27	
1	0	0	0	0	505	463	0	503	39	29	
2	0	0	0	0	510	460	0	492	39	30	
3	0	0	0	0	505	456	0	482	39	28	
4	0	0	0	0	511	456	0	476	39	26	
5	0	0	0	0	505	456	0	472	39	23	
6	0	0	0	0	508	455	0	470	39	22	
7	0	0	0	0	512	454	0	467	39	24	
8	0	0	0	0	507	449	0	473	39	26	
9	0	0	0	0	510	448	0	495	39	28	
10	0	0	0	0	504	451	0	502	39	29	
11	0	0	0	0	508	457	0	498	39	29	
12	0	0	0	0	507	458	0	493	39	27	
13	0	0	0	0	513	457	0	494	39	24	
14	0	0	0	0	511	463	0	500	39	22	
15	0	0	0	0	507	470	0	497	39	23	
0	0	0	0	0	508	468	0	511	39	26	
1	0	0	0	0	512	468	0	527	39	28	
2	0	0	0	0	516	468	0	526	39	29	
3	0	0	0	0	517	465	0	517	39	29	
4	0	0	0	0	508	464	0	506	39	27	
5	0	0	0	0	502	467	0	501	39	25	
6	0	0	0	0	502	472	0	490	39	22	
7	0	0	0	0	506	473	0	485	39	22	
8	0	0	0	0	512	469	0	486	39	25	
9	0	0	0	0	504	460	0	506	39	27	
10	0	0	0	0	508	458	0	524	39	29	
11	0	0	0	0	505	464	0	523	39	30	
12	0	0	0	0	504	465	0	518	39	28	
13	0	0	0	0	512	467	0	510	39	26	
14	0	0	0	0	509	472	0	503	39	23	
15	0	0	0	0	509	475	0	493	39	22	
0	0	0	0	0	514	480	0	499	39	24	
1	0	0	0	0	508	484	0	516	39	26	
2	0	0	0	0	505	476	0	519	39	28	
3	0	0	0	0	511	473	0	514	39	29	
4	0	0	0	0	505	476	0	506	39	29	
5	0	0	0	0	509	475	0	500	39	27	
6	0	0	0	0	510	472	0	495	39	24	
7	0	0	0	0	502	473	0	495	39	22	
8	0	0	0	0	505	464	0	489	39	23	
9	0	0	0	0	505	452	0	505	39	26	
10	0	0	0	0	509	449	0	526	39	28	
11	0	0	0	0	508	452	0	529	39	29	
12	0	0	0	0	505	460	0	525	39	29	
13	0	0	0	0	512	465	0	526	39	27	
14	0	0	0	0	517	468	0	521	39	24	
15	0	0	0	0	514	470	0	521	39	22	
0	0	0	0	0	513	471	0	539	39	22	
1	0	0	0	0	507	471	0	538	39	25	
2	0	0	0	0	503	475	0	528	39	27	
3	0	0	0	0	510	480	0	515	39	29	
4	0	0	0	0	504	480	0	502	39	30	
5	0	0	0	0	504	481	0	494	39	28	
6	0	0	0	0	508	478	0	488	39	25	
7	0	0	0	0	510	475	0	483	39	23	
8	0	0	0	0	509	476	0	480	39	22	
9	0	0	0	0	511	478	0	490	39	24	
10	0	0	0	0	504	477	0	514	39	26	
11	0	0	0	0	509	476	0	523	39	28	
12	0	0	0	0	509	475	0	519	39	29	
13	0	0	0	0	507	476	0	512	39	29	
14	0	0	0	0	507	480	0	502	39	27	
15	0	0	0	0	510	484	0	501	39	24	
0	0	0	0	0	508	487	0	519	39	22	
1	0	0	0	0	515	483	0	524	39	23	
2	0	0	0	0	507	479	0	519	39	26	
3	0	0	0	0	505	476	0	512	39	28	
4	0	0	0	0	508	469	0	505	39	29	
5	0	0	0	0	508	471	0	500	39	29	
6	0	0	0	0	509	479	0	497	39	27	
7	0	0	0	0	512	489	0	492	39	24	
8	0	0	0	0	508	495	0	492	39	22	
9	0	0	0	0	512	489	0	498	39	23	
10	0	0	0	0	501	486	0	523	39	25	
11	0	0	0	0	512	489	0	534	39	27	
12	0	0	0	0	509	491	0	532	39	29	
13	0	0	0	0	504	491	0	533	39	30	
14	0	0	0	0	506	488	0	531	39	28	
15	0	0	0	0	508	485	0	527	39	25	
0	0	0	0	0	508	481	0	542	39	23	
1	0	0	0	0	510	486	0	552	39	22	
2	0	0	0	0	511	492	0	563	39	24	
3	0	0	0	0	504	497	0	538	39	26	
4	0	0	0	0	507	498	0	526	39	28	
5	0	0	0	0	505	497	0	516	39	30	
6	0	0	0	0	508	499	0	509	39	29	
7	0	0	0	0	509	499	0	505	39	26	
8	0	0	0	0	505	498	0	508	39	24	
9	0	0	0	0	515	500	0	529	39	22	
10	0	0	0	0	505	498	0	539	39	23	
11	0	0	0	0	509	493	0	534	39	26	
12	0	0	0	0	509	492	0	527	39	28	
13	0	0	0	0	507	492	0	519	39	29	
14	0	0	0	0	510	493	0	513	39	29	
15	0	0	0	0	513	497	0	508	39	27	
0	0	0	0	0	506	498	0	519	39	24	
1	0	0	0	0	503	497	0	536	39	22	
2	0	0	0	0	501	491	0	538	39	23	
3	0	0	0	0	504	486	0	557	39	25	
4	0	0	0	0	514	491	0	561	39	27	
5	0	0	0	0	509	497	0	551	39	29	
6	0	0	0	0	511	498	0	552	39	30	
7	0	0	0	0	510	499	0	563	39	28	
8	0	0	0	0	507	502	0	573	39	25	
9	0	0	0	0	507	504	0	545	39	23	
10	0	0	0	0	504	504	0	541	39	22	
11	0	0	0	0	513	503	0	535	39	24	
12	0	0	0	0	508	500	0	527	39	26	
13	0	0	0	0	503	485	0	520	39	28	
14	0	0	0	0	507	478	0	514	39	30	
15	0	0	0	0	510	484	0	509	39	29	
0	0	0	0	0	507	491	0	505	39	26	
1	0	0	0	0	504	496	0	509	39	23	
2	0	0	0	0	505	497	0	533	39	22	
3	0	0	0	0	509	499	0	542	39	23	
4	0	0	0	0	507	501	0	539	39	26	
5	0	0	0	0	510	503	0	532	39	28	
6	0	0	0	0	504	499	0	527	39	29	
7	0	0	0	0	504	495	0	521	39	29	
8	0	0	0	0	510	496	0	534	39	27	
9	0	0	0	0	509	497	0	543	39	24	
10	0	0	0	0	509	490	0	541	39	22	
11	0	0	0	0	511	494	0	533	39	23	
12	0	0	0	0	508	495	0	524	39	25	
13	0	0	0	0	508	491	0	517	39	27	
14	0	0	0	0	508	490	0	510	39	29	
15	0	0	0	0	510	494	0	504	39	30	
0	0	0	0	0	508	499	0	509	39	28	
1	0	0	0	0	512	500	0	529	39	25	
2	0	0	0	0	513	501	0	536	39	23	
3	0	0	0	0	504	506	0	531	39	22	
4	0	0	0	0	514	510	0	524	39	24	
5	0	0	0	0	510	511	0	524	39	26	
6	0	0	0	0	502	511	0	509	39	28	
7	0	0	0	0	500	513	0	502	39	30	
8	0	0	0	0	509	512	0	512	39	29	
9	0	0	0	0	504	510	0	523	39	26	
10	0	0	0	0	506	508	0	523	39	23	
11	0	0	0	0	512	504	0	517	39	22	
12	0	0	0	0	504	499	0	512	39	23	
13	0	0	0	0	511	497	0	514	39	26	
14	0	0	0	0	515	498	0	512	39	28	
15	0	0	0	0	507	493	0	509	39	29	
0	0	0	0	0	507	490	0	507	39	29	
1	0	0	0	0	508	491	0	525	39	27	
2	0	0	0	0	511	495	0	539	39	24	
3	0	0	0	0	504	499	0	538	39	22	
4	0	0	0	0	505	510	0	528	39	23	
5	0	0	0	0	508	510	0	520	39	25	
6	0	0	0	0	509	508	0	511	39	27	
7	0	0	0	0	508	510	0	505	39	29	
8	0	0	0	0	509	511	0	503	39	30	
9	0	0	0	0	502	512	0	507	39	28	
10	0	0	0	0	508	508	0	528	39	25	
11	0	0	0	0	507	508	0	536	39	23	
12	0	0	0	0	513	508	0	527	39	22	
13	0	0	0	0	511	505	0	519	39	24	
14	0	0	0	0	504	502	0	513	39	26	
15	0	0	0	0	511	497	0	507	39	28	
0	0	0	0	0	505	495	0	518	39	29	
1	0	0	0	0	505	492	0	526	39	29	
2	0	0	0	0	510	492	0	523	39	26	
3	0	0	0	0	512	494	0	514	39	23	
4	0	0	0	0	508	499	0	505	39	22	
5	0	0	0	0	504	508	0	499	39	23	
6	0	0	0	0	512	515	0	492	39	26	
7	0	0	0	0	504	519	0	486	39	28	
8	0	0	0	0	509	522	0	487	39	29	
9	0	0	0	0	510	511	0	508	39	29	
10	0	0	0	0	513	501	0	512	39	27	
11	0	0	0	0	507	500	0	509	39	24	
12	0	0	0	0	511	500	0	509	39	22	
13	0	0	0	0	502	502	0	508	39	23	
14	0	0	0	0	507	508	0	502	39	25	
15	0	0	0	0	512	509	0	503	39	27	
0	0	0	0	0	508	501	0	487	39	29	
1	0	0	0	0	511	494	0	491	39	30	
2	0	0	0	0	508	498	0	512	39	28	
3	0	0	0	0	509	508	0	515	39	25	
4	0	0	0	0	512	522	0	508	39	23	
5	0	0	0	0	505	532	0	500	39	22	
6	0	0	0	0	506	524	0	491	39	24	
7	0	0	0	0	507	506	0	485	39	27	
8	0	0	0	0	507	500	0	483	39	28	
9	0	0	0	0	507	500	0	477	39	30	
10	0	0	0	0	504	507	0	490	39	29	
11	0	0	0	0	507	518	0	509	39	26	
12	0	0	0	0	507	521	0	512	39	23	
13	0	0	0	0	508	495	0	508	39	22	
14	0	0	0	0	508	477	0	522	39	23	
15	0	0	0	0	513	475	0	526	39	26	
0	0	0	0	0	513	482	0	515	39	28	
1	0	0	0	0	510	496	0	503	39	29	
2	0	0	0	0	505	504	0	493	39	29	
3	0	0	0	0	504	507	0	484	39	27	
4	0	0	0	0	505	511	0	478	39	24	
5	0	0	0	0	513	515	0	475	39	22	
6	0	0	0	0	513	518	0	474	39	23	
7	0	0	0	0	511	514	0	474	39	25	
8	0	0	0	0	512	504	0	474	39	27	
9	0	0	0	0	508	499	0	491	39	29	
10	0	0	0	0	510	503	0	511	39	29	
11	0	0	0	0	505	510	0	514	39	28	
12	0	0	0	0	510	512	0	511	39	25	
13	0	0	0	0	508	510	0	512	39	23	
14	0	0	0	0	513	511	0	504	39	22	
15	0	0	0	0	507	514	0	507	39	24	
0	0	0	0	0	504	518	0	523	39	27	
1	0	0	0	0	506	516	0	521	39	28	
2	0	0	0	0	505	512	0	512	39	30	
3	0	0	0	0	503	509	0	502	39	29	
